PEER NGA STRONG MOTION DATABASE RECORD
SAN FERNANDO 02/09/71 14:00, BUENA VISTA - TAFT, 090 (USGS STATION 1)           
ACCELERATION TIME HISTORY IN UNITS OF G
NPTS=   5327, DT=   0.0050 SEC
   0.703522E-03   0.757587E-03   0.759678E-03   0.756097E-03   0.750932E-03
   0.744522E-03   0.737545E-03   0.730498E-03   0.724647E-03   0.720846E-03
   0.720377E-03   0.724068E-03   0.732323E-03   0.745846E-03   0.764702E-03
   0.788444E-03   0.815582E-03   0.844683E-03   0.874211E-03   0.903476E-03
   0.931777E-03   0.958872E-03   0.984932E-03   0.100979E-02   0.103340E-02
   0.105503E-02   0.107359E-02   0.108660E-02   0.109028E-02   0.108020E-02
   0.105388E-02   0.100830E-02   0.941895E-03   0.853492E-03   0.742741E-03
   0.609037E-03   0.452143E-03   0.272207E-03   0.732443E-04  -0.139748E-03
  -0.361210E-03  -0.586931E-03  -0.811512E-03  -0.103180E-02  -0.124649E-02
  -0.145624E-02  -0.166377E-02  -0.187355E-02  -0.208981E-02  -0.231474E-02
  -0.254772E-02  -0.278691E-02  -0.303053E-02  -0.327728E-02  -0.352651E-02
  -0.377948E-02  -0.403540E-02  -0.429197E-02  -0.452841E-02  -0.470630E-02
  -0.478273E-02  -0.471758E-02  -0.448359E-02  -0.407878E-02  -0.352663E-02
  -0.286577E-02  -0.213922E-02  -0.138690E-02  -0.642554E-03   0.694205E-04
   0.728553E-03   0.131636E-02   0.181737E-02   0.222431E-02   0.253216E-02
   0.273841E-02   0.284669E-02   0.286639E-02   0.281231E-02   0.270115E-02
   0.255095E-02   0.237768E-02   0.219416E-02   0.200826E-02   0.182442E-02
   0.164377E-02   0.146541E-02   0.129091E-02   0.112698E-02   0.982993E-03
   0.871061E-03   0.803256E-03   0.788814E-03   0.830374E-03   0.912410E-03
   0.999333E-03   0.104999E-02   0.102864E-02   0.908480E-03   0.667568E-03
   0.292812E-03  -0.216839E-03  -0.851703E-03  -0.160078E-02  -0.245603E-02
  -0.340738E-02  -0.444118E-02  -0.553762E-02  -0.666400E-02  -0.777832E-02
  -0.884202E-02  -0.981818E-02  -0.106624E-01  -0.113321E-01  -0.117993E-01
  -0.120464E-01  -0.120646E-01  -0.118601E-01  -0.114413E-01  -0.108084E-01
  -0.995970E-02  -0.889877E-02  -0.763533E-02  -0.618900E-02  -0.459095E-02
  -0.289375E-02  -0.116368E-02   0.528108E-03   0.210595E-02   0.350208E-02
   0.467238E-02   0.559616E-02   0.627101E-02   0.671191E-02   0.694864E-02
   0.701277E-02   0.692768E-02   0.671403E-02   0.639238E-02   0.598329E-02
   0.551100E-02   0.500567E-02   0.449925E-02   0.401853E-02   0.358106E-02
   0.318986E-02   0.283160E-02   0.248049E-02   0.210938E-02   0.169427E-02
   0.121512E-02   0.660284E-03   0.264097E-04  -0.686415E-03  -0.147595E-02
  -0.232839E-02  -0.319886E-02  -0.401875E-02  -0.472392E-02  -0.526686E-02
  -0.562548E-02  -0.579880E-02  -0.580453E-02  -0.567268E-02  -0.544163E-02
  -0.514920E-02  -0.482923E-02  -0.450680E-02  -0.419692E-02  -0.390657E-02
  -0.363659E-02  -0.338286E-02  -0.314179E-02  -0.291149E-02  -0.269077E-02
  -0.247828E-02  -0.227317E-02  -0.207376E-02  -0.187906E-02  -0.168781E-02
  -0.149846E-02  -0.131035E-02  -0.112197E-02  -0.934268E-03  -0.752584E-03
  -0.586308E-03  -0.443449E-03  -0.330325E-03  -0.252332E-03  -0.215558E-03
  -0.223733E-03  -0.276724E-03  -0.369063E-03  -0.484442E-03  -0.599176E-03
  -0.682121E-03  -0.691062E-03  -0.581389E-03  -0.320620E-03   0.103251E-03
   0.682482E-03   0.139343E-02   0.220246E-02   0.306912E-02   0.394969E-02
   0.480798E-02   0.561779E-02   0.636313E-02   0.701974E-02   0.755199E-02
   0.793291E-02   0.814895E-02   0.820721E-02   0.812988E-02   0.795058E-02
   0.770534E-02   0.742652E-02   0.713379E-02   0.683333E-02   0.652429E-02
   0.620742E-02   0.589051E-02   0.558562E-02   0.530291E-02   0.504567E-02
   0.481128E-02   0.459356E-02   0.438481E-02   0.417780E-02   0.396771E-02
   0.375167E-02   0.352992E-02   0.330353E-02   0.307755E-02   0.286023E-02
   0.265885E-02   0.247766E-02   0.230394E-02   0.209218E-02   0.177998E-02
   0.132865E-02   0.737156E-03   0.284016E-04  -0.755362E-03  -0.155970E-02
  -0.233272E-02  -0.303391E-02  -0.363871E-02  -0.413810E-02  -0.453096E-02
  -0.481992E-02  -0.501447E-02  -0.512859E-02  -0.517913E-02  -0.517455E-02
  -0.511665E-02  -0.500501E-02  -0.484058E-02  -0.462198E-02  -0.434199E-02
  -0.399085E-02  -0.356137E-02  -0.304471E-02  -0.243133E-02  -0.171581E-02
  -0.907740E-03  -0.407018E-04   0.836580E-03   0.167453E-02   0.241688E-02
   0.300040E-02   0.337572E-02   0.351647E-02   0.342476E-02   0.312936E-02
   0.267516E-02   0.211507E-02   0.150713E-02   0.922731E-03   0.440733E-03
   0.121448E-03   0.121883E-07   0.808528E-04   0.338794E-03   0.725645E-03
   0.118702E-02   0.166945E-02   0.213084E-02   0.254409E-02   0.290153E-02
   0.321086E-02   0.348857E-02   0.375164E-02   0.401212E-02   0.427461E-02
   0.453982E-02   0.480278E-02   0.505325E-02   0.527758E-02   0.546458E-02
   0.559560E-02   0.564235E-02   0.558029E-02   0.538658E-02   0.503065E-02
   0.447612E-02   0.370684E-02   0.273860E-02   0.160990E-02   0.372552E-03
  -0.919041E-03  -0.221343E-02  -0.346629E-02  -0.463098E-02  -0.566233E-02
  -0.652752E-02  -0.720155E-02  -0.766974E-02  -0.793411E-02  -0.801214E-02
  -0.792605E-02  -0.769209E-02  -0.732310E-02  -0.683326E-02  -0.623366E-02
  -0.553171E-02  -0.473649E-02  -0.386536E-02  -0.294812E-02  -0.201958E-02
  -0.111025E-02  -0.248000E-03   0.542557E-03   0.124685E-02   0.186009E-02
   0.238798E-02   0.284447E-02   0.324700E-02   0.360704E-02   0.391976E-02
   0.416760E-02   0.433355E-02   0.440774E-02   0.439251E-02   0.430188E-02
   0.415611E-02   0.397707E-02   0.379187E-02   0.363103E-02   0.352813E-02
   0.352165E-02   0.364362E-02   0.391275E-02   0.432988E-02   0.487909E-02
   0.553256E-02   0.625169E-02   0.698708E-02   0.769221E-02   0.830868E-02
   0.877239E-02   0.903549E-02   0.907355E-02   0.888317E-02   0.847496E-02
   0.787351E-02   0.711322E-02   0.623116E-02   0.525624E-02   0.421057E-02
   0.312962E-02   0.206675E-02   0.107648E-02   0.201111E-03  -0.525873E-03
  -0.107797E-02  -0.144262E-02  -0.162503E-02  -0.164676E-02  -0.154167E-02
  -0.135631E-02  -0.113650E-02  -0.923176E-03  -0.749042E-03  -0.644817E-03
  -0.637661E-03  -0.743140E-03  -0.963235E-03  -0.128616E-02  -0.168895E-02
  -0.214375E-02  -0.262380E-02  -0.310509E-02  -0.357056E-02  -0.400954E-02
  -0.441758E-02  -0.479481E-02  -0.512980E-02  -0.539452E-02  -0.555980E-02
  -0.560416E-02  -0.551714E-02  -0.529435E-02  -0.493542E-02  -0.444852E-02
  -0.384994E-02  -0.316144E-02  -0.241051E-02  -0.162964E-02  -0.852796E-03
  -0.106590E-03   0.589894E-03   0.122485E-02   0.179408E-02   0.230012E-02
   0.274315E-02   0.311187E-02   0.338592E-02   0.354991E-02   0.359661E-02
   0.352439E-02   0.332296E-02   0.297512E-02   0.246961E-02   0.181098E-02
   0.102423E-02   0.148983E-03  -0.771766E-03  -0.169653E-02  -0.258601E-02
  -0.339523E-02  -0.406819E-02  -0.455440E-02  -0.482268E-02  -0.486581E-02
  -0.469792E-02  -0.435098E-02  -0.387393E-02  -0.333039E-02  -0.278864E-02
  -0.230666E-02  -0.192286E-02  -0.165499E-02  -0.149674E-02  -0.142592E-02
  -0.141026E-02  -0.141728E-02  -0.141843E-02  -0.139560E-02  -0.134402E-02
  -0.126679E-02  -0.117321E-02  -0.107419E-02  -0.980111E-03  -0.896448E-03
  -0.822320E-03  -0.752934E-03  -0.682504E-03  -0.605195E-03  -0.515021E-03
  -0.404731E-03  -0.266165E-03  -0.950700E-04   0.110224E-03   0.347464E-03
   0.612545E-03   0.898931E-03   0.120213E-02   0.151910E-02   0.184669E-02
   0.218340E-02   0.252671E-02   0.287309E-02   0.321491E-02   0.354213E-02
   0.384635E-02   0.412185E-02   0.436198E-02   0.454615E-02   0.464316E-02
   0.462607E-02   0.447497E-02   0.417654E-02   0.372780E-02   0.313760E-02
   0.242629E-02   0.162329E-02   0.760645E-03  -0.130639E-03  -0.102094E-02
  -0.188054E-02  -0.268495E-02  -0.341792E-02  -0.406550E-02  -0.460764E-02
  -0.502655E-02  -0.531375E-02  -0.547333E-02  -0.551713E-02  -0.546381E-02
  -0.533228E-02  -0.514200E-02  -0.491203E-02  -0.466136E-02  -0.441236E-02
  -0.418605E-02  -0.399913E-02  -0.385988E-02  -0.376828E-02  -0.371423E-02
  -0.367957E-02  -0.364574E-02  -0.359530E-02  -0.350989E-02  -0.336284E-02
  -0.312484E-02  -0.277519E-02  -0.230936E-02  -0.173785E-02  -0.108281E-02
  -0.371514E-03   0.370324E-03   0.112440E-02   0.187986E-02   0.263299E-02
   0.338270E-02   0.412015E-02   0.482960E-02   0.549458E-02   0.610433E-02
   0.665043E-02   0.712535E-02   0.752340E-02   0.784354E-02   0.808085E-02
   0.822918E-02   0.828629E-02   0.825556E-02   0.814033E-02   0.793537E-02
   0.763072E-02   0.722088E-02   0.670834E-02   0.611113E-02   0.545805E-02
   0.478076E-02   0.410660E-02   0.345082E-02   0.281518E-02   0.219389E-02
   0.157784E-02   0.959722E-03   0.335269E-03  -0.295927E-03  -0.933188E-03
  -0.156803E-02  -0.218639E-02  -0.277417E-02  -0.332040E-02  -0.381386E-02
  -0.423343E-02  -0.455638E-02  -0.476569E-02  -0.485646E-02  -0.483455E-02
  -0.471512E-02  -0.452063E-02  -0.427699E-02  -0.401041E-02  -0.374339E-02
  -0.349241E-02  -0.326654E-02  -0.307023E-02  -0.290240E-02  -0.275874E-02
  -0.263311E-02  -0.251755E-02  -0.240689E-02  -0.229828E-02  -0.219313E-02
  -0.209516E-02  -0.201368E-02  -0.196586E-02  -0.197124E-02  -0.204444E-02
  -0.219153E-02  -0.241066E-02  -0.269022E-02  -0.301519E-02  -0.336861E-02
  -0.373328E-02  -0.408082E-02  -0.436450E-02  -0.453504E-02  -0.455439E-02
  -0.440500E-02  -0.408893E-02  -0.362760E-02  -0.305234E-02  -0.239955E-02
  -0.170477E-02  -0.994892E-03  -0.283013E-03   0.430350E-03   0.115014E-02
   0.187969E-02   0.261360E-02   0.334252E-02   0.405628E-02   0.474948E-02
   0.542648E-02   0.609994E-02   0.678272E-02   0.747807E-02   0.815456E-02
   0.875249E-02   0.921420E-02   0.949758E-02   0.958350E-02   0.947036E-02
   0.917116E-02   0.871064E-02   0.812298E-02   0.744330E-02   0.670259E-02
   0.592716E-02   0.513651E-02   0.434481E-02   0.356234E-02   0.279600E-02
   0.204884E-02   0.131910E-02   0.598885E-03  -0.132124E-03  -0.899358E-03
  -0.171731E-02  -0.256971E-02  -0.341160E-02  -0.419362E-02  -0.487341E-02
  -0.542192E-02  -0.582597E-02  -0.608949E-02  -0.622627E-02  -0.625099E-02
  -0.617585E-02  -0.601358E-02  -0.577535E-02  -0.546992E-02  -0.510484E-02
  -0.468828E-02  -0.422936E-02  -0.374153E-02  -0.324539E-02  -0.276569E-02
  -0.232363E-02  -0.193214E-02  -0.159260E-02  -0.129779E-02  -0.103431E-02
  -0.787788E-03  -0.544594E-03  -0.297120E-03  -0.440496E-04   0.211380E-03
   0.463883E-03   0.708722E-03   0.940433E-03   0.115246E-02   0.134021E-02
   0.150061E-02   0.163426E-02   0.174360E-02   0.183332E-02   0.191160E-02
   0.198849E-02   0.207339E-02   0.217369E-02   0.229407E-02   0.243788E-02
   0.260676E-02   0.280079E-02   0.301676E-02   0.324985E-02   0.349325E-02
   0.373682E-02   0.396964E-02   0.416857E-02   0.430496E-02   0.435479E-02
   0.430370E-02   0.414902E-02   0.389411E-02   0.354330E-02   0.310529E-02
   0.259261E-02   0.202020E-02   0.140935E-02   0.786815E-03   0.179671E-03
  -0.390871E-03  -0.911834E-03  -0.137816E-02  -0.178380E-02  -0.212132E-02
  -0.238535E-02  -0.257896E-02  -0.271422E-02  -0.281160E-02  -0.289251E-02
  -0.297573E-02  -0.307562E-02  -0.320009E-02  -0.334676E-02  -0.350472E-02
  -0.366022E-02  -0.379828E-02  -0.390180E-02  -0.395316E-02  -0.394072E-02
  -0.385903E-02  -0.370740E-02  -0.347700E-02  -0.315282E-02  -0.272389E-02
  -0.218416E-02  -0.153363E-02  -0.779763E-03   0.561827E-04   0.935183E-03
   0.180801E-02   0.262961E-02   0.336902E-02   0.401126E-02   0.455501E-02
   0.499962E-02   0.533796E-02   0.556373E-02   0.567786E-02   0.568827E-02
   0.560568E-02   0.543699E-02   0.518525E-02   0.485504E-02   0.444982E-02
   0.397318E-02   0.343997E-02   0.288641E-02   0.235671E-02   0.189025E-02
   0.151126E-02   0.122362E-02   0.101083E-02   0.847778E-03   0.706063E-03
   0.566669E-03   0.420688E-03   0.266299E-03   0.106538E-03  -0.552879E-04
  -0.219520E-03  -0.390315E-03  -0.572337E-03  -0.768735E-03  -0.979582E-03
  -0.119774E-02  -0.141262E-02  -0.161348E-02  -0.179239E-02  -0.194551E-02
  -0.207241E-02  -0.217804E-02  -0.226887E-02  -0.235572E-02  -0.245745E-02
  -0.259389E-02  -0.277344E-02  -0.298265E-02  -0.319586E-02  -0.338453E-02
  -0.351974E-02  -0.357527E-02  -0.353461E-02  -0.339350E-02  -0.315707E-02
  -0.284003E-02  -0.246073E-02  -0.203852E-02  -0.159264E-02  -0.113847E-02
  -0.687958E-03  -0.249210E-03   0.173521E-03   0.577697E-03   0.964945E-03
   0.133834E-02   0.170182E-02   0.206037E-02   0.241815E-02   0.277698E-02
   0.312914E-02   0.344516E-02   0.368548E-02   0.381297E-02   0.380597E-02
   0.365878E-02   0.338183E-02   0.299827E-02   0.253743E-02   0.203511E-02
   0.153010E-02   0.105591E-02   0.636841E-03   0.283758E-03  -0.124927E-05
  -0.227685E-03  -0.408856E-03  -0.560339E-03  -0.681576E-03  -0.756212E-03
  -0.765167E-03  -0.693518E-03  -0.534650E-03  -0.289638E-03   0.328601E-04
   0.419660E-03   0.854058E-03   0.131226E-02   0.175711E-02   0.214674E-02
   0.244696E-02   0.263788E-02   0.272175E-02   0.272177E-02   0.266981E-02
   0.260065E-02   0.254642E-02   0.253234E-02   0.257267E-02   0.267241E-02
   0.282769E-02   0.303002E-02   0.326821E-02   0.353352E-02   0.381558E-02
   0.410662E-02   0.439485E-02   0.466721E-02   0.491116E-02   0.511916E-02
   0.527664E-02   0.535537E-02   0.532624E-02   0.516652E-02   0.487129E-02
   0.445070E-02   0.392879E-02   0.333433E-02   0.269067E-02   0.200483E-02
   0.127554E-02   0.498304E-03  -0.317967E-03  -0.115064E-02  -0.197360E-02
  -0.276326E-02  -0.350003E-02  -0.417016E-02  -0.476840E-02  -0.529307E-02
  -0.573709E-02  -0.608661E-02  -0.633164E-02  -0.647038E-02  -0.650910E-02
  -0.645239E-02  -0.630214E-02  -0.606301E-02  -0.574203E-02  -0.535215E-02
  -0.491306E-02  -0.445124E-02  -0.399093E-02  -0.355251E-02  -0.314955E-02
  -0.278961E-02  -0.247478E-02  -0.220318E-02  -0.196729E-02  -0.175880E-02
  -0.156690E-02  -0.138292E-02  -0.119839E-02  -0.100783E-02  -0.807489E-03
  -0.597137E-03  -0.377660E-03  -0.155352E-03   0.605529E-04   0.260040E-03
   0.437120E-03   0.587484E-03   0.715883E-03   0.834762E-03   0.960792E-03
   0.111009E-02   0.129255E-02   0.151420E-02   0.177076E-02   0.205317E-02
   0.234895E-02   0.264655E-02   0.293542E-02   0.320585E-02   0.344017E-02
   0.361530E-02   0.371278E-02   0.372250E-02   0.364537E-02   0.349065E-02
   0.327471E-02   0.301604E-02   0.273353E-02   0.244015E-02   0.213930E-02
   0.182654E-02   0.149532E-02   0.113873E-02   0.753899E-03   0.340608E-03
  -0.981778E-04  -0.559141E-03  -0.103872E-02  -0.153397E-02  -0.204126E-02
  -0.255709E-02  -0.307907E-02  -0.360404E-02  -0.412995E-02  -0.465490E-02
  -0.517603E-02  -0.569046E-02  -0.619665E-02  -0.669008E-02  -0.715878E-02
  -0.758721E-02  -0.796103E-02  -0.825514E-02  -0.843548E-02  -0.847489E-02
  -0.836030E-02  -0.809371E-02  -0.768803E-02  -0.716124E-02  -0.653726E-02
  -0.584186E-02  -0.509916E-02  -0.432929E-02  -0.354458E-02  -0.275136E-02
  -0.195248E-02  -0.115093E-02  -0.351928E-03   0.435872E-03   0.120545E-02
   0.195151E-02   0.266300E-02   0.330161E-02   0.380718E-02   0.412725E-02
   0.422951E-02   0.411083E-02   0.379597E-02   0.332579E-02   0.274990E-02
   0.211655E-02   0.146899E-02   0.841095E-03   0.255310E-03  -0.276460E-03
  -0.749215E-03  -0.116103E-02  -0.151551E-02  -0.180969E-02  -0.203374E-02
  -0.217952E-02  -0.224340E-02  -0.222482E-02  -0.212313E-02  -0.193884E-02
  -0.167719E-02  -0.134738E-02  -0.961468E-03  -0.534532E-03  -0.821376E-04
   0.381666E-03   0.846312E-03   0.130704E-02   0.176330E-02   0.220407E-02
   0.259448E-02   0.289259E-02   0.306136E-02   0.307394E-02   0.291566E-02
   0.258830E-02   0.210923E-02   0.150845E-02   0.824393E-03   0.953362E-04
  -0.636777E-03  -0.133012E-02  -0.195003E-02  -0.247373E-02  -0.288258E-02
  -0.316437E-02  -0.331696E-02  -0.334902E-02  -0.326864E-02  -0.307518E-02
  -0.276363E-02  -0.234394E-02  -0.183885E-02  -0.127828E-02  -0.690996E-03
  -0.995046E-04   0.483482E-03   0.105327E-02   0.160956E-02   0.213259E-02
   0.258313E-02   0.292349E-02   0.312763E-02   0.318554E-02   0.310260E-02
   0.289591E-02   0.259117E-02   0.221681E-02   0.180184E-02   0.137063E-02
   0.944083E-03   0.535236E-03   0.151124E-03  -0.207202E-03  -0.542865E-03
  -0.857787E-03  -0.115071E-02  -0.142060E-02  -0.166719E-02  -0.189149E-02
  -0.209277E-02  -0.226941E-02  -0.242056E-02  -0.254678E-02  -0.265038E-02
  -0.273537E-02  -0.280688E-02  -0.286956E-02  -0.292866E-02  -0.298727E-02
  -0.304681E-02  -0.310175E-02  -0.314201E-02  -0.315702E-02  -0.314025E-02
  -0.308791E-02  -0.300018E-02  -0.288074E-02  -0.273385E-02  -0.256590E-02
  -0.238347E-02  -0.219247E-02  -0.200043E-02  -0.181556E-02  -0.164375E-02
  -0.148880E-02  -0.135239E-02  -0.123789E-02  -0.115045E-02  -0.109449E-02
  -0.107176E-02  -0.108051E-02  -0.111427E-02  -0.116316E-02  -0.121629E-02
  -0.126436E-02  -0.130051E-02  -0.132024E-02  -0.130982E-02  -0.124704E-02
  -0.111186E-02  -0.892810E-03  -0.592616E-03  -0.228130E-03   0.175258E-03
   0.592191E-03   0.100107E-02   0.138514E-02   0.173574E-02   0.204555E-02
   0.230936E-02   0.252581E-02   0.269789E-02   0.283190E-02   0.293615E-02
   0.301781E-02   0.308299E-02   0.313496E-02   0.317779E-02   0.321379E-02
   0.324457E-02   0.327074E-02   0.328512E-02   0.326530E-02   0.317962E-02
   0.300057E-02   0.270650E-02   0.228139E-02   0.172124E-02   0.103265E-02
   0.238605E-03  -0.626756E-03  -0.152547E-02  -0.242224E-02  -0.327895E-02
  -0.405353E-02  -0.471298E-02  -0.523723E-02  -0.562000E-02  -0.586160E-02
  -0.597405E-02  -0.597488E-02  -0.588859E-02  -0.573776E-02  -0.553347E-02
  -0.527985E-02  -0.497665E-02  -0.462565E-02  -0.423065E-02  -0.380233E-02
  -0.335479E-02  -0.290296E-02  -0.245812E-02  -0.202471E-02  -0.159874E-02
  -0.117004E-02  -0.728040E-03  -0.261961E-03   0.237038E-03   0.775816E-03
   0.135576E-02   0.197295E-02   0.261141E-02   0.324080E-02   0.382942E-02
   0.435140E-02   0.479110E-02   0.514084E-02   0.539502E-02   0.555043E-02
   0.561136E-02   0.558633E-02   0.548795E-02   0.532673E-02   0.511478E-02
   0.486342E-02   0.458183E-02   0.426319E-02   0.388284E-02   0.341748E-02
   0.285748E-02   0.221946E-02   0.153442E-02   0.837436E-03   0.160246E-03
  -0.470345E-03  -0.103388E-02  -0.151772E-02  -0.191572E-02  -0.221929E-02
  -0.242185E-02  -0.252225E-02  -0.252676E-02  -0.244914E-02  -0.230752E-02
  -0.212493E-02  -0.192636E-02  -0.173353E-02  -0.156164E-02  -0.141997E-02
  -0.131080E-02  -0.123106E-02  -0.117192E-02  -0.112005E-02  -0.105994E-02
  -0.979542E-03  -0.869722E-03  -0.728155E-03  -0.554800E-03  -0.354974E-03
  -0.136642E-03   0.906347E-04   0.314849E-03   0.528366E-03   0.725133E-03
   0.902781E-03   0.106179E-02   0.120780E-02   0.134965E-02   0.149684E-02
   0.165749E-02   0.183589E-02   0.203515E-02   0.225624E-02   0.249998E-02
   0.276518E-02   0.304925E-02   0.334793E-02   0.365015E-02   0.393906E-02
   0.419571E-02   0.440680E-02   0.456551E-02   0.467160E-02   0.473000E-02
   0.475054E-02   0.474357E-02   0.472046E-02   0.468710E-02   0.464086E-02
   0.457606E-02   0.448497E-02   0.436260E-02   0.419262E-02   0.395099E-02
   0.361252E-02   0.316118E-02   0.259281E-02   0.191186E-02   0.113437E-02
   0.280646E-03  -0.618900E-03  -0.152939E-02  -0.241524E-02  -0.324856E-02
  -0.400034E-02  -0.464516E-02  -0.516765E-02  -0.556290E-02  -0.583107E-02
  -0.598274E-02  -0.603215E-02  -0.598265E-02  -0.582176E-02  -0.553824E-02
  -0.512737E-02  -0.459653E-02  -0.396881E-02  -0.327597E-02  -0.255238E-02
  -0.182752E-02  -0.112903E-02  -0.480740E-03   0.103028E-03   0.616833E-03
   0.106169E-02   0.143887E-02   0.174656E-02   0.198587E-02   0.216165E-02
   0.228227E-02   0.235839E-02   0.239843E-02   0.240555E-02   0.238209E-02
   0.232928E-02   0.224897E-02   0.214518E-02   0.202182E-02   0.188432E-02
   0.173713E-02   0.158497E-02   0.143087E-02   0.127684E-02   0.112341E-02
   0.969404E-03   0.814289E-03   0.656880E-03   0.501837E-03   0.357236E-03
   0.232133E-03   0.132892E-03   0.623348E-04   0.152978E-04  -0.262435E-04
  -0.860855E-04  -0.187967E-03  -0.346551E-03  -0.567830E-03  -0.838260E-03
  -0.113151E-02  -0.141880E-02  -0.167407E-02  -0.188069E-02  -0.203116E-02
  -0.212820E-02  -0.218116E-02  -0.220388E-02  -0.221007E-02  -0.221384E-02
  -0.222684E-02  -0.226277E-02  -0.233215E-02  -0.244101E-02  -0.259044E-02
  -0.277830E-02  -0.300216E-02  -0.325904E-02  -0.354390E-02  -0.383414E-02
  -0.408718E-02  -0.425838E-02  -0.431258E-02  -0.423070E-02  -0.400994E-02
  -0.366082E-02  -0.320579E-02  -0.267296E-02  -0.210049E-02  -0.153426E-02
  -0.101685E-02  -0.578016E-03  -0.232166E-03   0.270604E-04   0.222258E-03
   0.381575E-03   0.534491E-03   0.700780E-03   0.881909E-03   0.106195E-02
   0.121984E-02   0.133522E-02   0.139489E-02   0.139253E-02   0.133479E-02
   0.124163E-02   0.113964E-02   0.105446E-02   0.100627E-02   0.100619E-02
   0.105674E-02   0.115048E-02   0.127546E-02   0.141793E-02   0.156374E-02
   0.169453E-02   0.178765E-02   0.182230E-02   0.178538E-02   0.167251E-02
   0.148863E-02   0.124263E-02   0.944175E-03   0.606054E-03   0.239968E-03
  -0.138627E-03  -0.511870E-03  -0.860457E-03  -0.116580E-02  -0.141114E-02
  -0.158357E-02  -0.168014E-02  -0.170488E-02  -0.166763E-02  -0.158334E-02
  -0.146611E-02  -0.132495E-02  -0.116457E-02  -0.985682E-03  -0.789081E-03
  -0.574435E-03  -0.342948E-03  -0.961054E-04   0.164405E-03   0.436790E-03
   0.718522E-03   0.100762E-02   0.129793E-02   0.157748E-02   0.183157E-02
   0.204622E-02   0.220910E-02   0.230986E-02   0.234026E-02   0.229890E-02
   0.218960E-02   0.202155E-02   0.180122E-02   0.153495E-02   0.122653E-02
   0.883028E-03   0.510172E-03   0.114268E-03  -0.300822E-03  -0.732551E-03
  -0.117893E-02  -0.163905E-02  -0.210605E-02  -0.256930E-02  -0.301290E-02
  -0.342331E-02  -0.379028E-02  -0.410803E-02  -0.437225E-02  -0.458246E-02
  -0.474387E-02  -0.486355E-02  -0.494939E-02  -0.500384E-02  -0.502211E-02
  -0.500006E-02  -0.493510E-02  -0.482710E-02  -0.467020E-02  -0.445087E-02
  -0.415505E-02  -0.377555E-02  -0.331280E-02  -0.277879E-02  -0.219242E-02
  -0.157454E-02  -0.946125E-03  -0.328696E-03   0.255711E-03   0.788442E-03
   0.125838E-02   0.166276E-02   0.199364E-02   0.223630E-02   0.238034E-02
   0.242268E-02   0.236904E-02   0.222886E-02   0.201488E-02   0.174042E-02
   0.142042E-02   0.106965E-02   0.703150E-03   0.339278E-03  -0.418438E-05
  -0.313008E-03  -0.579939E-03  -0.803968E-03  -0.985660E-03  -0.112856E-02
  -0.123550E-02  -0.131036E-02  -0.135897E-02  -0.138786E-02  -0.140223E-02
  -0.140821E-02  -0.140941E-02  -0.141028E-02  -0.141089E-02  -0.141363E-02
  -0.141769E-02  -0.142345E-02  -0.142916E-02  -0.143467E-02  -0.143928E-02
  -0.144250E-02  -0.144395E-02  -0.144387E-02  -0.144260E-02  -0.144079E-02
  -0.143817E-02  -0.143519E-02  -0.142541E-02  -0.139588E-02  -0.133275E-02
  -0.122572E-02  -0.107718E-02  -0.903627E-03  -0.731786E-03  -0.585986E-03
  -0.485233E-03  -0.440657E-03  -0.453657E-03  -0.517354E-03  -0.619524E-03
  -0.745742E-03  -0.881743E-03  -0.101547E-02  -0.113871E-02  -0.124725E-02
  -0.134154E-02  -0.142481E-02  -0.150225E-02  -0.157830E-02  -0.165845E-02
  -0.174444E-02  -0.183636E-02  -0.192979E-02  -0.201845E-02  -0.209612E-02
  -0.216012E-02  -0.220727E-02  -0.223846E-02  -0.225458E-02  -0.225414E-02
  -0.223214E-02  -0.218182E-02  -0.209977E-02  -0.198437E-02  -0.183807E-02
  -0.167148E-02  -0.150364E-02  -0.135730E-02  -0.125164E-02  -0.119926E-02
  -0.120454E-02  -0.126261E-02  -0.136325E-02  -0.149108E-02  -0.163136E-02
  -0.177059E-02  -0.188329E-02  -0.193284E-02  -0.188297E-02  -0.171061E-02
  -0.141408E-02  -0.102108E-02  -0.580779E-03  -0.143287E-03   0.247567E-03
   0.562023E-03   0.784514E-03   0.911212E-03   0.944888E-03   0.896892E-03
   0.783093E-03   0.623057E-03   0.433042E-03   0.224229E-03   0.664202E-05
  -0.215623E-03  -0.439979E-03  -0.665149E-03  -0.891801E-03  -0.112115E-02
  -0.135292E-02  -0.158785E-02  -0.182577E-02  -0.206492E-02  -0.229992E-02
  -0.252375E-02  -0.272850E-02  -0.290457E-02  -0.302786E-02  -0.307119E-02
  -0.301266E-02  -0.284212E-02  -0.256017E-02  -0.217819E-02  -0.171437E-02
  -0.119080E-02  -0.628918E-03  -0.511932E-04   0.514623E-03   0.103191E-02
   0.147183E-02   0.181634E-02   0.206091E-02   0.221179E-02   0.228422E-02
   0.229564E-02   0.226344E-02   0.220372E-02   0.212949E-02   0.205090E-02
   0.197731E-02   0.191531E-02   0.186908E-02   0.183988E-02   0.182636E-02
   0.182570E-02   0.183427E-02   0.184977E-02   0.186846E-02   0.188851E-02
   0.190751E-02   0.192434E-02   0.193714E-02   0.194565E-02   0.194973E-02
   0.194776E-02   0.193733E-02   0.191539E-02   0.188035E-02   0.183014E-02
   0.176172E-02   0.166820E-02   0.154601E-02   0.139188E-02   0.120663E-02
   0.988443E-03   0.737780E-03   0.455534E-03   0.145083E-03  -0.186876E-03
  -0.531874E-03  -0.879861E-03  -0.122231E-02  -0.154384E-02  -0.182095E-02
  -0.202724E-02  -0.214295E-02  -0.216048E-02  -0.208028E-02  -0.191171E-02
  -0.166981E-02  -0.137249E-02  -0.103920E-02  -0.692442E-03  -0.358749E-03
  -0.635892E-04   0.175684E-03   0.350699E-03   0.466243E-03   0.544407E-03
   0.616460E-03   0.713290E-03   0.858788E-03   0.107051E-02   0.135601E-02
   0.171426E-02   0.213143E-02   0.257731E-02   0.301786E-02   0.342110E-02
   0.376382E-02   0.402252E-02   0.417433E-02   0.420641E-02   0.411691E-02
   0.392015E-02   0.364311E-02   0.331732E-02   0.297388E-02   0.263326E-02
   0.230555E-02   0.199007E-02   0.168170E-02   0.137299E-02   0.105594E-02
   0.722888E-03   0.370271E-03  -0.321016E-05  -0.392039E-03  -0.779969E-03
  -0.114768E-02  -0.147769E-02  -0.175696E-02  -0.197055E-02  -0.210780E-02
  -0.216106E-02  -0.213217E-02  -0.202982E-02  -0.186841E-02  -0.167132E-02
  -0.146327E-02  -0.126835E-02  -0.110273E-02  -0.977140E-03  -0.893737E-03
  -0.849329E-03  -0.837428E-03  -0.851653E-03  -0.885746E-03  -0.932817E-03
  -0.987265E-03  -0.104473E-02  -0.110059E-02  -0.114616E-02  -0.117018E-02
  -0.116309E-02  -0.112023E-02  -0.104019E-02  -0.926989E-03  -0.789632E-03
  -0.637426E-03  -0.478511E-03  -0.314299E-03  -0.139514E-03   0.531088E-04
   0.268262E-03   0.506248E-03   0.752521E-03   0.980835E-03   0.116560E-02
   0.128649E-02   0.133088E-02   0.129048E-02   0.116326E-02   0.954957E-03
   0.676734E-03   0.347790E-03  -0.860547E-05  -0.372049E-03  -0.722697E-03
  -0.104987E-02  -0.134530E-02  -0.160307E-02  -0.182193E-02  -0.199487E-02
  -0.210998E-02  -0.215666E-02  -0.213084E-02  -0.203360E-02  -0.186084E-02
  -0.160182E-02  -0.124795E-02  -0.798736E-03  -0.262945E-03   0.335294E-03
   0.964836E-03   0.159465E-02   0.219883E-02   0.276215E-02   0.327584E-02
   0.373904E-02   0.414172E-02   0.446280E-02   0.468279E-02   0.479291E-02
   0.479312E-02   0.469458E-02   0.451122E-02   0.425701E-02   0.394571E-02
   0.358939E-02   0.319949E-02   0.278475E-02   0.235239E-02   0.190775E-02
   0.145477E-02   0.996598E-03   0.534038E-03   0.690547E-04  -0.397332E-03
  -0.860870E-03  -0.131351E-02  -0.174978E-02  -0.216385E-02  -0.255479E-02
  -0.292109E-02  -0.326107E-02  -0.357620E-02  -0.386698E-02  -0.413762E-02
  -0.438552E-02  -0.460485E-02  -0.478848E-02  -0.493291E-02  -0.503789E-02
  -0.510543E-02  -0.514267E-02  -0.515629E-02  -0.515371E-02  -0.514176E-02
  -0.512260E-02  -0.509469E-02  -0.505347E-02  -0.499547E-02  -0.491866E-02
  -0.482144E-02  -0.469948E-02  -0.454790E-02  -0.436281E-02  -0.413957E-02
  -0.387577E-02  -0.357095E-02  -0.322748E-02  -0.284955E-02  -0.243738E-02
  -0.198812E-02  -0.150171E-02  -0.983134E-03  -0.442397E-03   0.101937E-03
   0.632978E-03   0.113374E-02   0.158773E-02   0.198656E-02   0.232648E-02
   0.259888E-02   0.278860E-02   0.288081E-02   0.286752E-02   0.274973E-02
   0.253608E-02   0.223713E-02   0.186935E-02   0.145037E-02   0.998063E-03
   0.537090E-03   0.994974E-04  -0.284786E-03  -0.594542E-03  -0.821629E-03
  -0.970495E-03  -0.105983E-02  -0.111136E-02  -0.114871E-02  -0.119203E-02
  -0.125517E-02  -0.134599E-02  -0.146874E-02  -0.161995E-02  -0.179393E-02
  -0.198403E-02  -0.218246E-02  -0.238213E-02  -0.257857E-02  -0.276833E-02
  -0.295541E-02  -0.314874E-02  -0.335965E-02  -0.359614E-02  -0.385951E-02
  -0.413321E-02  -0.439104E-02  -0.460654E-02  -0.474917E-02  -0.479400E-02
  -0.472702E-02  -0.454405E-02  -0.425724E-02  -0.388709E-02  -0.346194E-02
  -0.300804E-02  -0.255003E-02  -0.210371E-02  -0.167740E-02  -0.127273E-02
  -0.885742E-03  -0.509491E-03  -0.128307E-03   0.280632E-03   0.742723E-03
   0.127323E-02   0.187106E-02   0.251679E-02   0.318031E-02   0.383233E-02
   0.444821E-02   0.500776E-02   0.549933E-02   0.591875E-02   0.625998E-02
   0.651485E-02   0.667779E-02   0.675144E-02   0.674552E-02   0.666965E-02
   0.653163E-02   0.633201E-02   0.607136E-02   0.575984E-02   0.541649E-02
   0.506399E-02   0.472310E-02   0.440575E-02   0.410726E-02   0.380986E-02
   0.349076E-02   0.313517E-02   0.273751E-02   0.230023E-02   0.183172E-02
   0.134384E-02   0.851819E-03   0.368450E-03  -0.958278E-04  -0.527077E-03
  -0.901735E-03  -0.119089E-02  -0.137164E-02  -0.143541E-02  -0.138346E-02
  -0.123316E-02  -0.101229E-02  -0.754386E-03  -0.489883E-03  -0.247047E-03
  -0.554546E-04   0.570048E-04   0.712775E-04  -0.185300E-04  -0.198869E-03
  -0.434996E-03  -0.675802E-03  -0.876519E-03  -0.998298E-03  -0.101719E-02
  -0.919237E-03  -0.703986E-03  -0.383147E-03   0.214787E-04   0.480690E-03
   0.963950E-03   0.144366E-02   0.190133E-02   0.233004E-02   0.273298E-02
   0.311953E-02   0.350049E-02   0.388461E-02   0.427549E-02   0.466814E-02
   0.505565E-02   0.543114E-02   0.578717E-02   0.611507E-02   0.640613E-02
   0.665374E-02   0.685634E-02   0.700486E-02   0.708507E-02   0.708497E-02
   0.699840E-02   0.682513E-02   0.655957E-02   0.619268E-02   0.571990E-02
   0.514770E-02   0.449476E-02   0.378533E-02   0.304580E-02   0.230011E-02
   0.157434E-02   0.892523E-03   0.271799E-03  -0.279342E-03  -0.756841E-03
  -0.115489E-02  -0.147004E-02  -0.170308E-02  -0.185961E-02  -0.194576E-02
  -0.196608E-02  -0.192672E-02  -0.183668E-02  -0.170631E-02  -0.154911E-02
  -0.137817E-02  -0.120609E-02  -0.104653E-02  -0.919322E-03  -0.837339E-03
  -0.811005E-03  -0.840275E-03  -0.919595E-03  -0.103451E-02  -0.116471E-02
  -0.129165E-02  -0.139911E-02  -0.147777E-02  -0.152491E-02  -0.154231E-02
  -0.153400E-02  -0.150249E-02  -0.144551E-02  -0.136257E-02  -0.125309E-02
  -0.111413E-02  -0.939470E-03  -0.720979E-03  -0.453365E-03  -0.135770E-03
   0.226622E-03   0.623556E-03   0.104256E-02   0.147262E-02   0.190257E-02
   0.232577E-02   0.273550E-02   0.312362E-02   0.347868E-02   0.379277E-02
   0.406209E-02   0.428794E-02   0.447476E-02   0.463037E-02   0.476199E-02
   0.487887E-02   0.498612E-02   0.508375E-02   0.516064E-02   0.520495E-02
   0.520468E-02   0.515531E-02   0.505526E-02   0.490580E-02   0.470865E-02
   0.446642E-02   0.418467E-02   0.386821E-02   0.352135E-02   0.314659E-02
   0.274644E-02   0.232346E-02   0.188572E-02   0.145060E-02   0.104450E-02
   0.691596E-03   0.409438E-03   0.208752E-03   0.963092E-04   0.711864E-04
   0.124552E-03   0.241338E-03   0.399908E-03   0.575296E-03   0.744022E-03
   0.889590E-03   0.100100E-02   0.107563E-02   0.111570E-02   0.112784E-02
   0.112063E-02   0.110404E-02   0.108564E-02   0.107253E-02   0.106976E-02
   0.108425E-02   0.111962E-02   0.117907E-02   0.126188E-02   0.136488E-02
   0.148398E-02   0.161014E-02   0.172831E-02   0.182387E-02   0.188460E-02
   0.190244E-02   0.187730E-02   0.181038E-02   0.170729E-02   0.157250E-02
   0.141315E-02   0.123440E-02   0.103839E-02   0.822865E-03   0.588039E-03
   0.331880E-03   0.541148E-04  -0.245766E-03  -0.568104E-03  -0.911325E-03
  -0.126606E-02  -0.161396E-02  -0.193146E-02  -0.219915E-02  -0.240572E-02
  -0.254651E-02  -0.262585E-02  -0.265028E-02  -0.262744E-02  -0.256552E-02
  -0.247255E-02  -0.235788E-02  -0.222942E-02  -0.209544E-02  -0.196850E-02
  -0.185984E-02  -0.177982E-02  -0.173291E-02  -0.171946E-02  -0.173477E-02
  -0.176886E-02  -0.181181E-02  -0.185361E-02  -0.188663E-02  -0.190340E-02
  -0.189401E-02  -0.184679E-02  -0.175457E-02  -0.161427E-02  -0.142641E-02
  -0.119373E-02  -0.920111E-03  -0.611028E-03  -0.274364E-03   0.805799E-04
   0.441551E-03   0.797934E-03   0.114106E-02   0.146501E-02   0.175647E-02
   0.199550E-02   0.216392E-02   0.225261E-02   0.225899E-02   0.218941E-02
   0.204998E-02   0.184782E-02   0.159121E-02   0.128811E-02   0.945769E-03
   0.564626E-03   0.144539E-03  -0.314087E-03  -0.799599E-03  -0.128961E-02
  -0.175837E-02  -0.218468E-02  -0.255397E-02  -0.285505E-02  -0.307657E-02
  -0.321246E-02  -0.326085E-02  -0.322059E-02  -0.309589E-02  -0.289364E-02
  -0.262652E-02  -0.231063E-02  -0.196479E-02  -0.160779E-02  -0.125431E-02
  -0.915419E-03  -0.599596E-03  -0.315913E-03  -0.690637E-04   0.137826E-03
   0.307729E-03   0.436868E-03   0.515525E-03   0.536113E-03   0.494862E-03
   0.391927E-03   0.232166E-03   0.206042E-04  -0.234233E-03  -0.523945E-03
  -0.841437E-03  -0.118650E-02  -0.156188E-02  -0.197083E-02  -0.241136E-02
  -0.286555E-02  -0.330357E-02  -0.369542E-02  -0.401508E-02  -0.424074E-02
  -0.435640E-02  -0.435803E-02  -0.425054E-02  -0.404705E-02  -0.376327E-02
  -0.341825E-02  -0.303055E-02  -0.261766E-02  -0.219290E-02  -0.176684E-02
  -0.134496E-02  -0.930145E-03  -0.525084E-03  -0.133904E-03   0.238727E-03
   0.589284E-03   0.916807E-03   0.122035E-02   0.149751E-02   0.174561E-02
   0.196398E-02   0.214982E-02   0.229706E-02   0.239603E-02   0.244084E-02
   0.242963E-02   0.236746E-02   0.226602E-02   0.213942E-02   0.200299E-02
   0.188046E-02   0.180380E-02   0.180419E-02   0.190171E-02   0.210491E-02
   0.240874E-02   0.279799E-02   0.325100E-02   0.374358E-02   0.425272E-02
   0.475616E-02   0.523045E-02   0.565492E-02   0.601849E-02   0.631703E-02
   0.655487E-02   0.674306E-02   0.689288E-02   0.701769E-02   0.712860E-02
   0.723326E-02   0.732769E-02   0.739359E-02   0.741126E-02   0.736634E-02
   0.725017E-02   0.706045E-02   0.680015E-02   0.647571E-02   0.609876E-02
   0.568168E-02   0.523547E-02   0.477002E-02   0.429295E-02   0.381146E-02
   0.333953E-02   0.289431E-02   0.249038E-02   0.213755E-02   0.184383E-02
   0.161845E-02   0.146916E-02   0.139813E-02   0.140115E-02   0.146894E-02
   0.158772E-02   0.174216E-02   0.191825E-02   0.210339E-02   0.228784E-02
   0.246331E-02   0.262013E-02   0.275104E-02   0.285174E-02   0.292153E-02
   0.296265E-02   0.297535E-02   0.295450E-02   0.289535E-02   0.278461E-02
   0.260052E-02   0.232091E-02   0.193816E-02   0.146814E-02   0.942044E-03
   0.395609E-03  -0.136438E-03  -0.622138E-03  -0.103736E-02  -0.137072E-02
  -0.161519E-02  -0.176766E-02  -0.182856E-02  -0.180466E-02  -0.170578E-02
  -0.154097E-02  -0.131983E-02  -0.105049E-02  -0.742965E-03  -0.407276E-03
  -0.645145E-04   0.254502E-03   0.522214E-03   0.719470E-03   0.839805E-03
   0.890486E-03   0.885293E-03   0.842137E-03   0.778736E-03   0.707267E-03
   0.629576E-03   0.540754E-03   0.434846E-03   0.305388E-03   0.147714E-03
  -0.408502E-04  -0.260159E-03  -0.508194E-03  -0.780533E-03  -0.107107E-02
  -0.137365E-02  -0.168285E-02  -0.199345E-02  -0.230261E-02  -0.260744E-02
  -0.290768E-02  -0.320339E-02  -0.349575E-02  -0.378525E-02  -0.406892E-02
  -0.433950E-02  -0.458752E-02  -0.480660E-02  -0.499266E-02  -0.514751E-02
  -0.527433E-02  -0.538070E-02  -0.547258E-02  -0.555290E-02  -0.562364E-02
  -0.568390E-02  -0.572691E-02  -0.573170E-02  -0.566377E-02  -0.549247E-02
  -0.519836E-02  -0.477720E-02  -0.423961E-02  -0.361225E-02  -0.293011E-02
  -0.222931E-02  -0.154032E-02  -0.883917E-03  -0.273020E-03   0.290480E-03
   0.810798E-03   0.129625E-02   0.175896E-02   0.220650E-02   0.264302E-02
   0.307098E-02   0.349126E-02   0.390126E-02   0.429627E-02   0.466956E-02
   0.501479E-02   0.532353E-02   0.557992E-02   0.576813E-02   0.587688E-02
   0.590333E-02   0.585094E-02   0.572873E-02   0.554914E-02   0.532724E-02
   0.507654E-02   0.480465E-02   0.451301E-02   0.420277E-02   0.387342E-02
   0.352514E-02   0.315911E-02   0.277699E-02   0.238264E-02   0.197872E-02
   0.157009E-02   0.116264E-02   0.764851E-03   0.384021E-03   0.240914E-04
  -0.308034E-03  -0.603049E-03  -0.851570E-03  -0.104653E-02  -0.118777E-02
  -0.127839E-02  -0.132783E-02  -0.134870E-02  -0.135807E-02  -0.137284E-02
  -0.140502E-02  -0.146229E-02  -0.154653E-02  -0.165172E-02  -0.176188E-02
  -0.185494E-02  -0.191132E-02  -0.191808E-02  -0.186863E-02  -0.176522E-02
  -0.161629E-02  -0.143208E-02  -0.122636E-02  -0.101031E-02  -0.794837E-03
  -0.590133E-03  -0.404713E-03  -0.244411E-03  -0.111584E-03  -0.331580E-05
   0.839417E-04   0.157249E-03   0.223751E-03   0.289439E-03   0.359842E-03
   0.438156E-03   0.527358E-03   0.629696E-03   0.744672E-03   0.871896E-03
   0.100822E-02   0.114675E-02   0.127736E-02   0.138998E-02   0.147786E-02
   0.153707E-02   0.156427E-02   0.155360E-02   0.149993E-02   0.140113E-02
   0.126520E-02   0.110835E-02   0.949389E-03   0.805264E-03   0.686779E-03
   0.600933E-03   0.546185E-03   0.518754E-03   0.507654E-03   0.503785E-03
   0.497923E-03   0.483045E-03   0.455273E-03   0.413235E-03   0.357551E-03
   0.295171E-03   0.240532E-03   0.214328E-03   0.232502E-03   0.307851E-03
   0.440483E-03   0.624518E-03   0.846563E-03   0.109148E-02   0.133707E-02
   0.155350E-02   0.171020E-02   0.178557E-02   0.176815E-02   0.165996E-02
   0.147285E-02   0.122462E-02   0.936464E-03   0.628447E-03   0.316833E-03
   0.149653E-04  -0.270741E-03  -0.536882E-03  -0.785331E-03  -0.101779E-02
  -0.123204E-02  -0.142189E-02  -0.158161E-02  -0.170757E-02  -0.179972E-02
  -0.186084E-02  -0.189529E-02  -0.190816E-02  -0.190511E-02  -0.188687E-02
  -0.185627E-02  -0.181520E-02  -0.176590E-02  -0.171270E-02  -0.166289E-02
  -0.162420E-02  -0.160230E-02  -0.160072E-02  -0.161965E-02  -0.165714E-02
  -0.171001E-02  -0.176867E-02  -0.182162E-02  -0.185559E-02  -0.186158E-02
  -0.183696E-02  -0.178313E-02  -0.170534E-02  -0.160717E-02  -0.147009E-02
  -0.127327E-02  -0.102439E-02  -0.743242E-03  -0.453730E-03  -0.177403E-03
   0.688489E-04   0.275704E-03   0.439919E-03   0.562976E-03   0.643246E-03
   0.677193E-03   0.663481E-03   0.602668E-03   0.500029E-03   0.365139E-03
   0.207343E-03   0.361920E-04  -0.139273E-03  -0.313705E-03  -0.482304E-03
  -0.643551E-03  -0.796706E-03  -0.943431E-03  -0.108520E-02  -0.122279E-02
  -0.135568E-02  -0.148336E-02  -0.160461E-02  -0.171779E-02  -0.182487E-02
  -0.193072E-02  -0.204466E-02  -0.217721E-02  -0.233415E-02  -0.251985E-02
  -0.273088E-02  -0.296098E-02  -0.320360E-02  -0.345020E-02  -0.369607E-02
  -0.393648E-02  -0.417080E-02  -0.440170E-02  -0.463272E-02  -0.486576E-02
  -0.510146E-02  -0.533310E-02  -0.555393E-02  -0.575489E-02  -0.593051E-02
  -0.606944E-02  -0.614819E-02  -0.613861E-02  -0.601118E-02  -0.574286E-02
  -0.532153E-02  -0.475075E-02  -0.405207E-02  -0.326023E-02  -0.241500E-02
  -0.155026E-02  -0.697334E-03   0.133349E-03   0.946459E-03   0.175971E-02
   0.258570E-02   0.341349E-02   0.420605E-02   0.492614E-02   0.554188E-02
   0.603528E-02   0.639460E-02   0.661418E-02   0.670005E-02   0.666689E-02
   0.653819E-02   0.634278E-02   0.610669E-02   0.585335E-02   0.559025E-02
   0.531626E-02   0.502292E-02   0.470244E-02   0.434868E-02   0.395876E-02
   0.353317E-02   0.307482E-02   0.259054E-02   0.208702E-02   0.157154E-02
   0.105202E-02   0.534259E-03   0.232219E-04  -0.478410E-03  -0.966262E-03
  -0.143620E-02  -0.188389E-02  -0.230768E-02  -0.270634E-02  -0.307093E-02
  -0.338901E-02  -0.364852E-02  -0.384357E-02  -0.397472E-02  -0.404592E-02
  -0.406441E-02  -0.404004E-02  -0.398433E-02  -0.390721E-02  -0.381834E-02
  -0.372535E-02  -0.363237E-02  -0.354214E-02  -0.345469E-02  -0.336435E-02
  -0.326695E-02  -0.315715E-02  -0.303142E-02  -0.288594E-02  -0.271447E-02
  -0.251185E-02  -0.227571E-02  -0.200743E-02  -0.171495E-02  -0.141220E-02
  -0.111578E-02  -0.838391E-03  -0.589734E-03  -0.373887E-03  -0.191165E-03
  -0.415090E-04   0.755928E-04   0.161428E-03   0.219022E-03   0.251796E-03
   0.260972E-03   0.248450E-03   0.215398E-03   0.165600E-03   0.101324E-03
   0.252788E-04  -0.578085E-04  -0.146176E-03  -0.234750E-03  -0.317460E-03
  -0.389040E-03  -0.446742E-03  -0.492633E-03  -0.537928E-03  -0.594719E-03
  -0.675069E-03  -0.770594E-03  -0.853389E-03  -0.893909E-03  -0.866153E-03
  -0.758117E-03  -0.571252E-03  -0.316677E-03  -0.120728E-04   0.323840E-03
   0.675846E-03   0.103356E-02   0.138808E-02   0.172755E-02   0.202875E-02
   0.227243E-02   0.244369E-02   0.253659E-02   0.254811E-02   0.248210E-02
   0.234748E-02   0.215822E-02   0.194087E-02   0.173738E-02   0.158864E-02
   0.152692E-02   0.156594E-02   0.169858E-02   0.190143E-02   0.214462E-02
   0.239733E-02   0.263587E-02   0.284618E-02   0.302987E-02   0.319576E-02
   0.335957E-02   0.353469E-02   0.372866E-02   0.393981E-02   0.415874E-02
   0.437351E-02   0.457261E-02   0.474814E-02   0.489260E-02   0.499388E-02
   0.503417E-02   0.500047E-02   0.488756E-02   0.469698E-02   0.444143E-02
   0.413636E-02   0.379947E-02   0.344835E-02   0.309624E-02   0.275383E-02
   0.242594E-02   0.210915E-02   0.179542E-02   0.147291E-02   0.113152E-02
   0.766068E-03   0.375102E-03  -0.298390E-04  -0.432325E-03  -0.815988E-03
  -0.116723E-02  -0.147199E-02  -0.171620E-02  -0.189175E-02  -0.199708E-02
  -0.203756E-02  -0.202428E-02  -0.197304E-02  -0.190216E-02  -0.182788E-02
  -0.176437E-02  -0.171846E-02  -0.169515E-02  -0.169309E-02  -0.170856E-02
  -0.173645E-02  -0.176954E-02  -0.180179E-02  -0.183006E-02  -0.185070E-02
  -0.186538E-02  -0.187397E-02  -0.187859E-02  -0.187211E-02  -0.183810E-02
  -0.175705E-02  -0.161572E-02  -0.140610E-02  -0.112419E-02  -0.769280E-03
  -0.343876E-03   0.144464E-03   0.680207E-03   0.124633E-02   0.182442E-02
   0.239987E-02   0.295865E-02   0.348723E-02   0.397138E-02   0.439988E-02
   0.475447E-02   0.501376E-02   0.516198E-02   0.519482E-02   0.511432E-02
   0.492771E-02   0.464735E-02   0.428963E-02   0.387381E-02   0.342406E-02
   0.296379E-02   0.251165E-02   0.208129E-02   0.167978E-02   0.130939E-02
   0.969975E-03   0.655322E-03   0.360185E-03   0.780502E-04  -0.187923E-03
  -0.421110E-03  -0.597329E-03  -0.697503E-03  -0.708847E-03  -0.628857E-03
  -0.456296E-03  -0.193567E-03   0.153130E-03   0.570429E-03   0.103967E-02
   0.152720E-02   0.200115E-02   0.243080E-02   0.280029E-02   0.309986E-02
   0.333503E-02   0.351885E-02   0.367508E-02   0.382518E-02   0.398238E-02
   0.413713E-02   0.426741E-02   0.434632E-02   0.435124E-02   0.426302E-02
   0.407008E-02   0.377188E-02   0.337914E-02   0.291133E-02   0.239131E-02
   0.184380E-02   0.128966E-02   0.744951E-03   0.219901E-03  -0.266822E-03
  -0.682749E-03  -0.993780E-03  -0.117318E-02  -0.121116E-02  -0.110996E-02
  -0.887259E-03  -0.567903E-03  -0.179623E-03   0.248832E-03   0.693351E-03
   0.113498E-02   0.155480E-02   0.193290E-02   0.224971E-02   0.249049E-02
   0.263964E-02   0.268911E-02   0.263898E-02   0.249739E-02   0.227881E-02
   0.200039E-02   0.168151E-02   0.133827E-02   0.983909E-03   0.629640E-03
   0.282347E-03  -0.548845E-04  -0.379697E-03  -0.694229E-03  -0.100120E-02
  -0.130516E-02  -0.161267E-02  -0.192983E-02  -0.226006E-02  -0.260305E-02
  -0.294777E-02  -0.327839E-02  -0.358091E-02  -0.384409E-02  -0.406435E-02
  -0.424572E-02  -0.439480E-02  -0.451947E-02  -0.462273E-02  -0.470577E-02
  -0.477090E-02  -0.480859E-02  -0.479925E-02  -0.471974E-02  -0.455416E-02
  -0.429870E-02  -0.395941E-02  -0.355218E-02  -0.309886E-02  -0.262488E-02
  -0.215322E-02  -0.170795E-02  -0.131024E-02  -0.972825E-03  -0.705455E-03
  -0.509757E-03  -0.381841E-03  -0.312230E-03  -0.291178E-03  -0.319146E-03
  -0.407338E-03  -0.567178E-03  -0.803574E-03  -0.111558E-02  -0.149333E-02
  -0.191973E-02  -0.237654E-02  -0.284729E-02  -0.332114E-02  -0.379165E-02
  -0.425765E-02  -0.471261E-02  -0.514548E-02  -0.554349E-02  -0.589747E-02
  -0.620293E-02  -0.644729E-02  -0.661319E-02  -0.668430E-02  -0.665448E-02
  -0.652706E-02  -0.631135E-02  -0.602197E-02  -0.567300E-02  -0.527824E-02
  -0.485138E-02  -0.440499E-02  -0.395490E-02  -0.352269E-02  -0.313030E-02
  -0.279411E-02  -0.252238E-02  -0.231632E-02  -0.217268E-02  -0.208356E-02
  -0.203810E-02  -0.202432E-02  -0.202984E-02  -0.204371E-02  -0.205621E-02
  -0.205929E-02  -0.204661E-02  -0.201669E-02  -0.196961E-02  -0.190846E-02
  -0.183684E-02  -0.175944E-02  -0.168021E-02  -0.160136E-02  -0.152583E-02
  -0.145364E-02  -0.138470E-02  -0.130785E-02  -0.120206E-02  -0.104635E-02
  -0.826384E-03  -0.539946E-03  -0.191743E-03   0.202118E-03   0.612908E-03
   0.100659E-02   0.135314E-02   0.163064E-02   0.183104E-02   0.195286E-02
   0.199770E-02   0.196327E-02   0.184962E-02   0.165736E-02   0.138039E-02
   0.101008E-02   0.541870E-03  -0.185667E-04  -0.651659E-03  -0.133002E-02
  -0.202325E-02  -0.270710E-02  -0.336186E-02  -0.397164E-02  -0.452750E-02
  -0.502605E-02  -0.547019E-02  -0.585516E-02  -0.616978E-02  -0.640199E-02
  -0.654799E-02  -0.661034E-02  -0.660002E-02  -0.653488E-02  -0.643819E-02
  -0.633135E-02  -0.623162E-02  -0.614988E-02  -0.608803E-02  -0.604340E-02
  -0.600854E-02  -0.597535E-02  -0.593352E-02  -0.586596E-02  -0.575497E-02
  -0.558613E-02  -0.535445E-02  -0.506624E-02  -0.473446E-02  -0.437776E-02
  -0.401232E-02  -0.365314E-02  -0.331156E-02  -0.300096E-02  -0.273381E-02
  -0.251938E-02  -0.235985E-02  -0.225508E-02  -0.220448E-02  -0.220785E-02
  -0.226306E-02  -0.236437E-02  -0.250236E-02  -0.266349E-02  -0.283503E-02
  -0.300565E-02  -0.316710E-02  -0.331515E-02  -0.344764E-02  -0.355797E-02
  -0.363285E-02  -0.366243E-02  -0.363905E-02  -0.356348E-02  -0.343877E-02
  -0.327474E-02  -0.308355E-02  -0.287835E-02  -0.267068E-02  -0.246959E-02
  -0.228046E-02  -0.210533E-02  -0.194417E-02  -0.179470E-02  -0.165407E-02
  -0.151974E-02  -0.139015E-02  -0.126160E-02  -0.113359E-02  -0.100487E-02
  -0.875381E-03  -0.745595E-03  -0.615907E-03  -0.489232E-03  -0.365231E-03
  -0.244948E-03  -0.128456E-03  -0.156105E-04   0.948780E-04   0.202547E-03
   0.309536E-03   0.415674E-03   0.522201E-03   0.628874E-03   0.736834E-03
   0.844796E-03   0.953437E-03   0.105590E-02   0.114097E-02   0.119775E-02
   0.121890E-02   0.120099E-02   0.114573E-02   0.106254E-02   0.968149E-03
   0.883406E-03   0.825810E-03   0.807489E-03   0.833863E-03   0.904688E-03
   0.101396E-02   0.115304E-02   0.131079E-02   0.147498E-02   0.163338E-02
   0.177624E-02   0.189785E-02   0.199723E-02   0.207480E-02   0.213503E-02
   0.218125E-02   0.220622E-02   0.218967E-02   0.211150E-02   0.195766E-02
   0.172238E-02   0.140967E-02   0.103296E-02   0.616496E-03   0.186071E-03
  -0.234318E-03  -0.627085E-03  -0.972144E-03  -0.124923E-02  -0.144447E-02
  -0.155245E-02  -0.157806E-02  -0.153262E-02  -0.143162E-02  -0.128120E-02
  -0.108065E-02  -0.830311E-03  -0.533305E-03  -0.195735E-03   0.173185E-03
   0.562606E-03   0.961942E-03   0.136219E-02   0.175642E-02   0.213500E-02
   0.248064E-02   0.277015E-02   0.298627E-02   0.311936E-02   0.317005E-02
   0.314754E-02   0.307117E-02   0.296486E-02   0.285151E-02   0.274900E-02
   0.266860E-02   0.260481E-02   0.254092E-02   0.245715E-02   0.233663E-02
   0.217113E-02   0.196598E-02   0.173608E-02   0.149947E-02   0.127380E-02
   0.107131E-02   0.896617E-03   0.745634E-03   0.607860E-03   0.471120E-03
   0.325909E-03   0.169956E-03   0.131763E-04  -0.130771E-03  -0.248798E-03
  -0.331548E-03  -0.374320E-03  -0.375811E-03  -0.339060E-03  -0.269209E-03
  -0.176195E-03  -0.728166E-04   0.280589E-04   0.116065E-03   0.184605E-03
   0.229789E-03   0.244763E-03   0.218093E-03   0.140725E-03   0.795803E-05
  -0.178569E-03  -0.407336E-03  -0.660540E-03  -0.915920E-03  -0.115551E-02
  -0.136485E-02  -0.153597E-02  -0.166254E-02  -0.174290E-02  -0.177902E-02
  -0.177775E-02  -0.174696E-02  -0.169626E-02  -0.163426E-02  -0.156389E-02
  -0.147687E-02  -0.136075E-02  -0.120545E-02  -0.100602E-02  -0.763608E-03
  -0.483397E-03  -0.175807E-03   0.140812E-03   0.445655E-03   0.720580E-03
   0.952792E-03   0.113700E-02   0.127474E-02   0.137081E-02   0.143353E-02
   0.146738E-02   0.147641E-02   0.146423E-02   0.143459E-02   0.139054E-02
   0.133575E-02   0.127386E-02   0.120620E-02   0.113625E-02   0.106430E-02
   0.992559E-03   0.927489E-03   0.883989E-03   0.880735E-03   0.930912E-03
   0.104280E-02   0.121420E-02   0.142789E-02   0.165592E-02   0.186924E-02
   0.204427E-02   0.216670E-02   0.223041E-02   0.224045E-02   0.220845E-02
   0.214923E-02   0.207792E-02   0.200780E-02   0.194856E-02   0.190545E-02
   0.187911E-02   0.186288E-02   0.184729E-02   0.182335E-02   0.178298E-02
   0.172153E-02   0.163629E-02   0.152526E-02   0.138625E-02   0.122042E-02
   0.103480E-02   0.844832E-03   0.669387E-03   0.524776E-03   0.421665E-03
   0.359936E-03   0.347914E-03   0.374602E-03   0.431560E-03   0.509036E-03
   0.598038E-03   0.690024E-03   0.778060E-03   0.851186E-03   0.891654E-03
   0.886400E-03   0.826421E-03   0.708916E-03   0.536885E-03   0.313944E-03
   0.455610E-04  -0.259648E-03  -0.593121E-03  -0.945698E-03  -0.130741E-02
  -0.167046E-02  -0.202669E-02  -0.237136E-02  -0.269356E-02  -0.297437E-02
  -0.319671E-02  -0.334801E-02  -0.342428E-02  -0.342889E-02  -0.336771E-02
  -0.324503E-02  -0.306492E-02  -0.283213E-02  -0.255395E-02  -0.223941E-02
  -0.189626E-02  -0.153211E-02  -0.115334E-02  -0.764770E-03  -0.370855E-03
   0.236802E-04   0.412455E-03   0.789649E-03   0.115117E-02   0.149605E-02
   0.182290E-02   0.213135E-02   0.242055E-02   0.269109E-02   0.294334E-02
   0.318084E-02   0.340479E-02   0.361602E-02   0.381120E-02   0.398791E-02
   0.414538E-02   0.428419E-02   0.440841E-02   0.452236E-02   0.463107E-02
   0.473888E-02   0.484914E-02   0.495874E-02   0.505948E-02   0.513854E-02
   0.518715E-02   0.519717E-02   0.516814E-02   0.510148E-02   0.500269E-02
   0.487356E-02   0.471534E-02   0.452887E-02   0.431499E-02   0.407321E-02
   0.379962E-02   0.349091E-02   0.314563E-02   0.276053E-02   0.232554E-02
   0.182521E-02   0.124978E-02   0.598453E-03  -0.115662E-03  -0.873166E-03
  -0.164947E-02  -0.242451E-02  -0.317366E-02  -0.387074E-02  -0.449563E-02
  -0.503841E-02  -0.549444E-02  -0.586483E-02  -0.615550E-02  -0.637840E-02
  -0.654842E-02  -0.668147E-02  -0.679169E-02  -0.688067E-02  -0.693272E-02
  -0.692223E-02  -0.682696E-02  -0.663159E-02  -0.633172E-02  -0.593422E-02
  -0.545101E-02  -0.490039E-02  -0.430114E-02  -0.367245E-02  -0.303071E-02
  -0.239492E-02  -0.178441E-02  -0.121400E-02  -0.692468E-03  -0.220466E-03
   0.207109E-03   0.600549E-03   0.969577E-03   0.131171E-02   0.161798E-02
   0.187775E-02   0.208351E-02   0.222895E-02   0.230712E-02   0.231258E-02
   0.224532E-02   0.211119E-02   0.191918E-02   0.168226E-02   0.141285E-02
   0.112296E-02   0.823077E-03   0.519738E-03   0.213447E-03  -0.962411E-04
  -0.411483E-03  -0.729403E-03  -0.103939E-02  -0.132447E-02  -0.156925E-02
  -0.176473E-02  -0.190667E-02  -0.200459E-02  -0.207751E-02  -0.214613E-02
  -0.222977E-02  -0.234209E-02  -0.248637E-02  -0.265756E-02  -0.284429E-02
  -0.303424E-02  -0.321585E-02  -0.338120E-02  -0.352446E-02  -0.364572E-02
  -0.374625E-02  -0.382960E-02  -0.389541E-02  -0.393518E-02  -0.393612E-02
  -0.388793E-02  -0.378585E-02  -0.362943E-02  -0.342608E-02  -0.318720E-02
  -0.292628E-02  -0.265499E-02  -0.238501E-02  -0.211876E-02  -0.184661E-02
  -0.154550E-02  -0.119396E-02  -0.776132E-03  -0.293243E-03   0.240976E-03
   0.806729E-03   0.138179E-02   0.194877E-02   0.249514E-02   0.301366E-02
   0.350350E-02   0.396570E-02   0.439521E-02   0.477717E-02   0.509800E-02
   0.534751E-02   0.551611E-02   0.559492E-02   0.558264E-02   0.548293E-02
   0.530792E-02   0.507438E-02   0.480396E-02   0.451905E-02   0.423923E-02
   0.397841E-02   0.374503E-02   0.354028E-02   0.336238E-02   0.320445E-02
   0.305955E-02   0.292108E-02   0.278060E-02   0.262833E-02   0.245361E-02
   0.224771E-02   0.200663E-02   0.173054E-02   0.142336E-02   0.109048E-02
   0.739331E-03   0.375202E-03   0.377615E-05  -0.367680E-03  -0.732454E-03
  -0.108055E-02  -0.140572E-02  -0.169645E-02  -0.192935E-02  -0.207680E-02
  -0.211493E-02  -0.203348E-02  -0.183467E-02  -0.153102E-02  -0.114328E-02
  -0.695902E-03  -0.214198E-03   0.281074E-03   0.772006E-03   0.124677E-02
   0.169505E-02   0.210687E-02   0.247804E-02   0.280681E-02   0.309480E-02
   0.333286E-02   0.350390E-02   0.359369E-02   0.359482E-02   0.350851E-02
   0.334266E-02   0.311039E-02   0.282538E-02   0.250379E-02   0.215999E-02
   0.180923E-02   0.146433E-02   0.113876E-02   0.840771E-03   0.572495E-03
   0.333356E-03   0.118599E-03  -0.772153E-04  -0.259602E-03  -0.433565E-03
  -0.601914E-03  -0.767683E-03  -0.933407E-03  -0.110400E-02  -0.128702E-02
  -0.149153E-02  -0.172300E-02  -0.198376E-02  -0.226748E-02  -0.256055E-02
  -0.284596E-02  -0.310822E-02  -0.333785E-02  -0.352898E-02  -0.367983E-02
  -0.379109E-02  -0.386633E-02  -0.391248E-02  -0.393603E-02  -0.394540E-02
  -0.394378E-02  -0.393116E-02  -0.390586E-02  -0.386642E-02  -0.381143E-02
  -0.374214E-02  -0.365924E-02  -0.356238E-02  -0.344866E-02  -0.331549E-02
  -0.316016E-02  -0.298355E-02  -0.278673E-02  -0.257396E-02  -0.235353E-02
  -0.213926E-02  -0.194330E-02  -0.177544E-02  -0.163992E-02  -0.153719E-02
  -0.146277E-02  -0.140730E-02  -0.135746E-02  -0.130151E-02  -0.122914E-02
  -0.113386E-02  -0.101476E-02  -0.872095E-03  -0.712822E-03  -0.545785E-03
  -0.382234E-03  -0.228892E-03  -0.922945E-04   0.254676E-04   0.124188E-03
   0.206855E-03   0.277140E-03   0.339174E-03   0.394719E-03   0.442243E-03
   0.478211E-03   0.498650E-03   0.501407E-03   0.485219E-03   0.452128E-03
   0.403556E-03   0.346284E-03   0.288877E-03   0.239126E-03   0.204516E-03
   0.188001E-03   0.190369E-03   0.210284E-03   0.244770E-03   0.288612E-03
   0.336100E-03   0.381376E-03   0.419519E-03   0.447965E-03   0.465511E-03
   0.472132E-03   0.470648E-03   0.462979E-03   0.454252E-03   0.448782E-03
   0.451673E-03   0.465901E-03   0.492670E-03   0.531445E-03   0.580694E-03
   0.637733E-03   0.700350E-03   0.766600E-03   0.833810E-03   0.900814E-03
   0.965775E-03   0.102731E-02   0.108221E-02   0.112770E-02   0.116231E-02
   0.118564E-02   0.119818E-02   0.120243E-02   0.120134E-02   0.120071E-02
   0.120577E-02   0.122059E-02   0.124752E-02   0.128718E-02   0.133613E-02
   0.138529E-02   0.142197E-02   0.143530E-02   0.141762E-02   0.136608E-02
   0.128929E-02   0.120337E-02   0.112670E-02   0.107524E-02   0.105966E-02
   0.108346E-02   0.114692E-02   0.124602E-02   0.137481E-02   0.152634E-02
   0.169289E-02   0.186799E-02   0.204539E-02   0.222057E-02   0.238798E-02
   0.254299E-02   0.268142E-02   0.280236E-02   0.290604E-02   0.299526E-02
   0.307358E-02   0.314569E-02   0.321730E-02   0.329225E-02   0.336408E-02
   0.341271E-02   0.341148E-02   0.333826E-02   0.317867E-02   0.293065E-02
   0.260440E-02   0.221907E-02   0.179829E-02   0.136424E-02   0.935221E-03
   0.524533E-03   0.144768E-03  -0.188844E-03  -0.458544E-03  -0.654048E-03
  -0.771449E-03  -0.815982E-03  -0.801527E-03  -0.747028E-03  -0.672367E-03
  -0.594695E-03  -0.527541E-03  -0.478477E-03  -0.450683E-03  -0.442650E-03
  -0.451241E-03  -0.470416E-03  -0.494115E-03  -0.517112E-03  -0.535360E-03
  -0.546008E-03  -0.549070E-03  -0.544817E-03  -0.536219E-03  -0.530030E-03
  -0.533809E-03  -0.554677E-03  -0.597773E-03  -0.664222E-03  -0.752969E-03
  -0.857356E-03  -0.964310E-03  -0.106127E-02  -0.113684E-02  -0.118378E-02
  -0.119912E-02  -0.118439E-02  -0.114135E-02  -0.107238E-02  -0.980714E-03
  -0.870354E-03  -0.744920E-03  -0.609369E-03  -0.461230E-03  -0.292256E-03
  -0.920272E-04   0.147470E-03   0.429322E-03   0.747162E-03   0.108237E-02
   0.141359E-02   0.172138E-02   0.199106E-02   0.220710E-02   0.235253E-02
   0.241746E-02   0.239885E-02   0.230261E-02   0.213938E-02   0.192328E-02
   0.166772E-02   0.138555E-02   0.108929E-02   0.786714E-03   0.487554E-03
   0.199033E-03  -0.729851E-04  -0.325995E-03  -0.561139E-03  -0.779751E-03
  -0.987094E-03  -0.118826E-02  -0.138847E-02  -0.159255E-02  -0.180216E-02
  -0.201711E-02  -0.223142E-02  -0.243628E-02  -0.262312E-02  -0.278571E-02
  -0.292154E-02  -0.302811E-02  -0.310206E-02  -0.313722E-02  -0.313132E-02
  -0.308462E-02  -0.300092E-02  -0.288516E-02  -0.274351E-02  -0.258134E-02
  -0.240463E-02  -0.221435E-02  -0.200558E-02  -0.177204E-02  -0.150824E-02
  -0.121229E-02  -0.887511E-03  -0.545028E-03  -0.199167E-03   0.137009E-03
   0.452612E-03   0.742672E-03   0.100653E-02   0.125031E-02   0.148256E-02
   0.171199E-02   0.194165E-02   0.216436E-02   0.236556E-02   0.253110E-02
   0.264987E-02   0.271722E-02   0.273311E-02   0.270229E-02   0.263026E-02
   0.252563E-02   0.239656E-02   0.225255E-02   0.210118E-02   0.195067E-02
   0.180762E-02   0.167726E-02   0.156142E-02   0.145979E-02   0.137106E-02
   0.129567E-02   0.123672E-02   0.119710E-02   0.117891E-02   0.118167E-02
   0.120387E-02   0.124182E-02   0.128943E-02   0.134037E-02   0.138846E-02
   0.142952E-02   0.145925E-02   0.147225E-02   0.146056E-02   0.141851E-02
   0.134326E-02   0.123639E-02   0.110467E-02   0.958688E-03   0.809511E-03
   0.666829E-03   0.537483E-03   0.423888E-03   0.322915E-03   0.222330E-03
   0.106744E-03  -0.381103E-04  -0.221203E-03  -0.447070E-03  -0.710994E-03
  -0.999927E-03  -0.129415E-02  -0.157521E-02  -0.182792E-02  -0.204591E-02
  -0.223002E-02  -0.238222E-02  -0.249273E-02  -0.254223E-02  -0.251256E-02
  -0.239398E-02  -0.218987E-02  -0.191240E-02  -0.158074E-02  -0.121453E-02
  -0.833070E-03  -0.452000E-03  -0.841387E-04   0.260926E-03   0.578466E-03
   0.868476E-03   0.113432E-02   0.138094E-02   0.161119E-02   0.181862E-02
   0.199140E-02   0.211874E-02   0.219326E-02   0.221415E-02   0.218404E-02
   0.210947E-02   0.199299E-02   0.183402E-02   0.163270E-02   0.139081E-02
   0.111209E-02   0.803377E-03   0.478590E-03   0.159186E-03  -0.135536E-03
  -0.390118E-03  -0.597145E-03  -0.755848E-03  -0.874007E-03  -0.967823E-03
  -0.105873E-02  -0.116669E-02  -0.130648E-02  -0.148658E-02  -0.170555E-02
  -0.195340E-02  -0.221468E-02  -0.247262E-02  -0.271457E-02  -0.293024E-02
  -0.311383E-02  -0.326417E-02  -0.338360E-02  -0.347261E-02  -0.352743E-02
  -0.354311E-02  -0.351811E-02  -0.345311E-02  -0.335354E-02  -0.322829E-02
  -0.308687E-02  -0.293869E-02  -0.279113E-02  -0.264908E-02  -0.251503E-02
  -0.238173E-02  -0.223269E-02  -0.204944E-02  -0.181619E-02  -0.152877E-02
  -0.119428E-02  -0.831498E-03  -0.461407E-03  -0.103433E-03   0.227966E-03
   0.522775E-03   0.769488E-03   0.957240E-03   0.107949E-02   0.113630E-02
   0.113378E-02   0.108127E-02   0.992433E-03   0.879677E-03   0.756050E-03
   0.635286E-03   0.529729E-03   0.449047E-03   0.398466E-03   0.377954E-03
   0.384084E-03   0.411973E-03   0.453830E-03   0.503069E-03   0.554095E-03
   0.602319E-03   0.644091E-03   0.677545E-03   0.700148E-03   0.712093E-03
   0.713849E-03   0.706686E-03   0.693464E-03   0.676361E-03   0.657762E-03
   0.639759E-03   0.624430E-03   0.612825E-03   0.604859E-03   0.600703E-03
   0.599688E-03   0.600618E-03   0.602325E-03   0.604269E-03   0.605514E-03
   0.605891E-03   0.604718E-03   0.602652E-03   0.599589E-03   0.595385E-03
   0.589588E-03   0.581391E-03   0.570728E-03   0.560842E-03   0.563515E-03
   0.598676E-03   0.683915E-03   0.830969E-03   0.103696E-02   0.128512E-02
   0.155163E-02   0.181298E-02   0.205019E-02   0.225283E-02   0.242067E-02
   0.255935E-02   0.267862E-02   0.278795E-02   0.289208E-02   0.298975E-02
   0.307872E-02   0.315632E-02   0.321981E-02   0.326854E-02   0.330310E-02
   0.332444E-02   0.333258E-02   0.332791E-02   0.330936E-02   0.327797E-02
   0.323496E-02   0.318204E-02   0.312159E-02   0.305261E-02   0.297111E-02
   0.287058E-02   0.274647E-02   0.260057E-02   0.244222E-02   0.228404E-02
   0.213747E-02   0.201154E-02   0.191076E-02   0.183332E-02   0.176734E-02
   0.169714E-02   0.160600E-02   0.148215E-02   0.132485E-02   0.114529E-02
   0.959621E-03   0.784825E-03   0.634889E-03   0.517468E-03   0.434276E-03
   0.381192E-03   0.350654E-03   0.333883E-03   0.322323E-03   0.308414E-03
   0.287600E-03   0.256836E-03   0.216515E-03   0.170477E-03   0.125331E-03
   0.875534E-04   0.628475E-04   0.535167E-04   0.608946E-04   0.837752E-04
   0.120260E-03   0.167769E-03   0.223104E-03   0.283849E-03   0.347357E-03
   0.411380E-03   0.474328E-03   0.532947E-03   0.584348E-03   0.626732E-03
   0.657970E-03   0.677378E-03   0.682936E-03   0.672863E-03   0.647003E-03
   0.606283E-03   0.552674E-03   0.489410E-03   0.423956E-03   0.368776E-03
   0.334248E-03   0.328654E-03   0.355374E-03   0.413531E-03   0.500053E-03
   0.613142E-03   0.754332E-03   0.925270E-03   0.112550E-02   0.135243E-02
   0.159624E-02   0.183611E-02   0.204826E-02   0.221284E-02   0.231726E-02
   0.235620E-02   0.233230E-02   0.225292E-02   0.213009E-02   0.197648E-02
   0.180315E-02   0.161356E-02   0.140631E-02   0.117795E-02   0.925585E-03
   0.648230E-03   0.350363E-03   0.423247E-04  -0.261673E-03  -0.549728E-03
  -0.812410E-03  -0.104588E-02  -0.125277E-02  -0.144368E-02  -0.163252E-02
  -0.183283E-02  -0.204786E-02  -0.226902E-02  -0.248261E-02  -0.267406E-02
  -0.283342E-02  -0.295417E-02  -0.303575E-02  -0.307869E-02  -0.308285E-02
  -0.304614E-02  -0.296887E-02  -0.285073E-02  -0.269092E-02  -0.248894E-02
  -0.224645E-02  -0.196717E-02  -0.165722E-02  -0.132440E-02  -0.978588E-03
  -0.629557E-03  -0.285238E-03   0.468173E-04   0.355723E-03   0.630564E-03
   0.863634E-03   0.105197E-02   0.119742E-02   0.130563E-02   0.138565E-02
   0.144718E-02   0.149908E-02   0.154976E-02   0.160299E-02   0.165572E-02
   0.169852E-02   0.172197E-02   0.171777E-02   0.168206E-02   0.161809E-02
   0.153868E-02   0.146365E-02   0.141181E-02   0.139631E-02   0.141821E-02
   0.146099E-02   0.149960E-02   0.150864E-02   0.146939E-02   0.137178E-02
   0.122186E-02   0.104349E-02   0.865881E-03   0.716690E-03   0.616611E-03
   0.576647E-03   0.599349E-03   0.679378E-03   0.805195E-03   0.960754E-03
   0.112550E-02   0.128102E-02   0.141379E-02   0.151504E-02   0.158266E-02
   0.161861E-02   0.162861E-02   0.161522E-02   0.157759E-02   0.151232E-02
   0.141777E-02   0.129412E-02   0.114353E-02   0.972394E-03   0.789809E-03
   0.606247E-03   0.431707E-03   0.272503E-03   0.132164E-03   0.104848E-04
  -0.937446E-04  -0.184735E-03  -0.267990E-03  -0.349538E-03  -0.435892E-03
  -0.531926E-03  -0.640038E-03  -0.760435E-03  -0.884120E-03  -0.993587E-03
  -0.107162E-02  -0.110500E-02  -0.108797E-02  -0.102199E-02  -0.914934E-03
  -0.778485E-03  -0.624434E-03  -0.464471E-03  -0.307181E-03  -0.159522E-03
  -0.259591E-04   0.883068E-04   0.179624E-03   0.246668E-03   0.290708E-03
   0.314717E-03   0.322891E-03   0.316848E-03   0.296654E-03   0.261039E-03
   0.210387E-03   0.144842E-03   0.663314E-04  -0.229883E-04  -0.119447E-03
  -0.218154E-03  -0.313617E-03  -0.402159E-03  -0.481277E-03  -0.550133E-03
  -0.609237E-03  -0.660249E-03  -0.704054E-03  -0.739663E-03  -0.766759E-03
  -0.784803E-03  -0.793702E-03  -0.794338E-03  -0.788005E-03  -0.776307E-03
  -0.761795E-03  -0.746348E-03  -0.732050E-03  -0.719823E-03  -0.710738E-03
  -0.704089E-03  -0.696000E-03  -0.678269E-03  -0.641398E-03  -0.578511E-03
  -0.486410E-03  -0.365729E-03  -0.222002E-03  -0.619605E-04   0.106629E-03
   0.276848E-03   0.439908E-03   0.583429E-03   0.693186E-03   0.758273E-03
   0.773458E-03   0.738979E-03   0.660498E-03   0.545398E-03   0.402385E-03
   0.240008E-03   0.667851E-04  -0.109518E-03  -0.279842E-03  -0.436168E-03
  -0.573020E-03  -0.687537E-03  -0.780637E-03  -0.855114E-03  -0.913794E-03
  -0.958620E-03  -0.991720E-03  -0.101461E-02  -0.102995E-02  -0.103948E-02
  -0.104716E-02  -0.105898E-02  -0.108015E-02  -0.111394E-02  -0.116284E-02
  -0.122590E-02  -0.130203E-02  -0.138818E-02  -0.148094E-02  -0.157251E-02
  -0.165084E-02  -0.170547E-02  -0.172920E-02  -0.171981E-02  -0.168418E-02
  -0.163466E-02  -0.158562E-02  -0.154898E-02  -0.153331E-02  -0.153955E-02
  -0.156100E-02  -0.158735E-02  -0.160750E-02  -0.161196E-02  -0.159132E-02
  -0.153808E-02  -0.144743E-02  -0.131967E-02  -0.115829E-02  -0.969284E-03
  -0.760425E-03  -0.538623E-03  -0.310723E-03  -0.817197E-04   0.144885E-03
   0.366578E-03   0.581606E-03   0.786111E-03   0.977769E-03   0.115525E-02
   0.131817E-02   0.146817E-02   0.160682E-02   0.173209E-02   0.183717E-02
   0.191567E-02   0.196268E-02   0.197734E-02   0.196102E-02   0.191846E-02
   0.185448E-02   0.177338E-02   0.167975E-02   0.157695E-02   0.146876E-02
   0.135719E-02   0.124368E-02   0.112712E-02   0.100358E-02   0.869922E-03
   0.723231E-03   0.562299E-03   0.387964E-03   0.201324E-03   0.571070E-05
  -0.196088E-03  -0.400925E-03  -0.605926E-03  -0.809146E-03  -0.100867E-02
  -0.120316E-02  -0.139211E-02  -0.156857E-02  -0.171791E-02  -0.182494E-02
  -0.187837E-02  -0.187365E-02  -0.181168E-02  -0.169935E-02  -0.154424E-02
  -0.135387E-02  -0.113558E-02  -0.896600E-03  -0.644678E-03  -0.388606E-03
  -0.138227E-03   0.981592E-04   0.315874E-03   0.512661E-03   0.687786E-03
   0.839186E-03   0.967329E-03   0.107373E-02   0.116124E-02   0.123409E-02
   0.129622E-02   0.134876E-02   0.138989E-02   0.141688E-02   0.142793E-02
   0.142246E-02   0.140069E-02   0.136503E-02   0.131486E-02   0.124890E-02
   0.116510E-02   0.106328E-02   0.944420E-03   0.814578E-03   0.684006E-03
   0.563150E-03   0.460612E-03   0.380884E-03   0.327409E-03   0.301732E-03
   0.303402E-03   0.330039E-03   0.377278E-03   0.438796E-03   0.505601E-03
   0.568413E-03   0.620094E-03   0.659884E-03   0.692955E-03   0.726864E-03
   0.768635E-03   0.823840E-03   0.895748E-03   0.984498E-03   0.108759E-02
   0.120087E-02   0.131995E-02   0.143994E-02   0.155801E-02   0.167169E-02
   0.178002E-02   0.188169E-02   0.197494E-02   0.205606E-02   0.212307E-02
   0.217494E-02   0.221214E-02   0.223645E-02   0.225031E-02   0.225676E-02
   0.225802E-02   0.225589E-02   0.225144E-02   0.224577E-02   0.223880E-02
   0.223109E-02   0.222258E-02   0.221255E-02   0.219880E-02   0.217815E-02
   0.214737E-02   0.210423E-02   0.204585E-02   0.196670E-02   0.185900E-02
   0.171736E-02   0.153966E-02   0.132761E-02   0.108552E-02   0.824084E-03
   0.558772E-03   0.303693E-03   0.709962E-04  -0.133253E-03  -0.306588E-03
  -0.451353E-03  -0.572581E-03  -0.677222E-03  -0.773040E-03  -0.866307E-03
  -0.962016E-03  -0.106391E-02  -0.117312E-02  -0.128940E-02  -0.140680E-02
  -0.151467E-02  -0.160240E-02  -0.166260E-02  -0.169106E-02  -0.168814E-02
  -0.166024E-02  -0.161942E-02  -0.158107E-02  -0.155864E-02  -0.156280E-02
  -0.160362E-02  -0.168806E-02  -0.181872E-02  -0.199297E-02  -0.220034E-02
  -0.241972E-02  -0.262358E-02  -0.278804E-02  -0.289626E-02  -0.294037E-02
  -0.292171E-02  -0.284793E-02  -0.273035E-02  -0.258338E-02  -0.241991E-02
  -0.225158E-02  -0.208689E-02  -0.192745E-02  -0.176815E-02  -0.160054E-02
  -0.141683E-02  -0.121417E-02  -0.997975E-03  -0.778345E-03  -0.565970E-03
  -0.371021E-03  -0.204440E-03  -0.770785E-04   0.453708E-05   0.382441E-04
   0.273844E-04  -0.214924E-04  -0.100111E-03  -0.199284E-03  -0.310742E-03
  -0.427432E-03  -0.543460E-03  -0.655101E-03  -0.759603E-03  -0.856589E-03
  -0.946338E-03  -0.102839E-02  -0.110072E-02  -0.116110E-02  -0.120877E-02
  -0.124196E-02  -0.125797E-02  -0.125475E-02  -0.123211E-02  -0.119210E-02
  -0.114479E-02  -0.110517E-02  -0.108760E-02  -0.110299E-02  -0.115589E-02
  -0.124129E-02  -0.134292E-02  -0.144122E-02  -0.151808E-02  -0.156043E-02
  -0.156145E-02  -0.151998E-02  -0.143773E-02  -0.131655E-02  -0.116078E-02
  -0.976178E-03  -0.771684E-03  -0.558451E-03  -0.345903E-03  -0.141628E-03
   0.495719E-04   0.222148E-03   0.369826E-03   0.487961E-03   0.571372E-03
   0.612951E-03   0.605879E-03   0.546921E-03   0.437552E-03   0.282820E-03
   0.916937E-04  -0.126541E-03  -0.360615E-03  -0.602569E-03  -0.844795E-03
  -0.108288E-02  -0.130993E-02  -0.151581E-02  -0.168991E-02  -0.182409E-02
  -0.191554E-02  -0.196563E-02  -0.197981E-02  -0.196547E-02  -0.193132E-02
  -0.188499E-02  -0.183264E-02  -0.177785E-02  -0.172377E-02  -0.167116E-02
  -0.162014E-02  -0.156974E-02  -0.151815E-02  -0.146273E-02  -0.140174E-02
  -0.133365E-02  -0.125807E-02  -0.117575E-02  -0.108743E-02  -0.993954E-03
  -0.894464E-03  -0.788009E-03  -0.673443E-03  -0.550742E-03  -0.420363E-03
  -0.285227E-03  -0.149282E-03  -0.168083E-04   0.109330E-03   0.226564E-03
   0.335117E-03   0.434906E-03   0.527805E-03   0.615691E-03   0.700880E-03
   0.786453E-03   0.874267E-03   0.965974E-03   0.106224E-02   0.116284E-02
   0.126754E-02   0.137623E-02   0.148910E-02   0.160663E-02   0.172813E-02
   0.185395E-02   0.198306E-02   0.211468E-02   0.224792E-02   0.238070E-02
   0.251030E-02   0.263427E-02   0.275120E-02   0.286080E-02   0.296313E-02
   0.305939E-02   0.315074E-02   0.323723E-02   0.331248E-02   0.336550E-02
   0.338563E-02   0.336588E-02   0.330369E-02   0.320042E-02   0.306037E-02
   0.288998E-02   0.269706E-02   0.248946E-02   0.227453E-02   0.205805E-02
   0.184476E-02   0.163683E-02   0.143511E-02   0.123908E-02   0.104899E-02
   0.866104E-03   0.694103E-03   0.536003E-03   0.392924E-03   0.265818E-03
   0.154442E-03   0.593436E-04  -0.190947E-04  -0.812738E-04  -0.128415E-03
  -0.163028E-03  -0.187591E-03  -0.205750E-03  -0.220112E-03  -0.233228E-03
  -0.246910E-03  -0.261970E-03  -0.274923E-03  -0.277728E-03  -0.261401E-03
  -0.219141E-03  -0.146551E-03  -0.438119E-04   0.863477E-04   0.237099E-03
   0.397862E-03   0.556919E-03   0.704413E-03   0.833090E-03   0.940161E-03
   0.102515E-02   0.109046E-02   0.113657E-02   0.115943E-02   0.115280E-02
   0.111238E-02   0.103628E-02   0.930183E-03   0.805221E-03   0.675629E-03
   0.553796E-03   0.449680E-03   0.368179E-03   0.310836E-03   0.275524E-03
   0.255347E-03   0.239271E-03   0.217302E-03   0.180483E-03   0.123851E-03
   0.450713E-04  -0.544389E-04  -0.171745E-03  -0.304357E-03  -0.451721E-03
  -0.614220E-03  -0.791703E-03  -0.983026E-03  -0.118576E-02  -0.139324E-02
  -0.159639E-02  -0.178663E-02  -0.195815E-02  -0.210751E-02  -0.223581E-02
  -0.234764E-02  -0.244946E-02  -0.254823E-02  -0.264977E-02  -0.275860E-02
  -0.287486E-02  -0.299563E-02  -0.311339E-02  -0.322161E-02  -0.331503E-02
  -0.339026E-02  -0.344678E-02  -0.348622E-02  -0.351172E-02  -0.352707E-02
  -0.353544E-02  -0.353643E-02  -0.352644E-02  -0.350170E-02  -0.345937E-02
  -0.339854E-02  -0.331965E-02  -0.322499E-02  -0.311708E-02  -0.299896E-02
  -0.287361E-02  -0.274392E-02  -0.261224E-02  -0.248135E-02  -0.235534E-02
  -0.223888E-02  -0.213524E-02  -0.204668E-02  -0.197271E-02  -0.191194E-02
  -0.185929E-02  -0.180784E-02  -0.174981E-02  -0.167860E-02  -0.159106E-02
  -0.148535E-02  -0.136396E-02  -0.123087E-02  -0.109077E-02  -0.948911E-03
  -0.809052E-03  -0.673565E-03  -0.542003E-03  -0.410399E-03  -0.274205E-03
  -0.129255E-03   0.276371E-04   0.197975E-03   0.382485E-03   0.579423E-03
   0.786885E-03   0.997935E-03   0.119946E-02   0.137441E-02   0.150844E-02
   0.159235E-02   0.162399E-02   0.160661E-02   0.155069E-02   0.147071E-02
   0.138192E-02   0.129753E-02   0.122422E-02   0.116246E-02   0.110881E-02
   0.105806E-02   0.100596E-02   0.950956E-03   0.894250E-03   0.837986E-03
   0.784367E-03   0.735917E-03   0.696044E-03   0.668249E-03   0.655346E-03
   0.658624E-03   0.676956E-03   0.705935E-03   0.733528E-03   0.744623E-03
   0.725301E-03   0.667717E-03   0.574221E-03   0.455170E-03   0.324316E-03
   0.195268E-03   0.762050E-04  -0.308440E-04  -0.128176E-03  -0.220696E-03
  -0.313031E-03  -0.410030E-03  -0.512925E-03  -0.618975E-03  -0.722896E-03
  -0.819183E-03  -0.903475E-03  -0.971645E-03  -0.102042E-02  -0.104768E-02
  -0.105401E-02  -0.104138E-02  -0.101335E-02  -0.974131E-03  -0.926032E-03
  -0.869720E-03  -0.803694E-03  -0.726494E-03  -0.637611E-03  -0.537107E-03
  -0.428366E-03  -0.314245E-03  -0.199082E-03  -0.859449E-04   0.230360E-04
   0.126400E-03   0.224071E-03   0.314991E-03   0.397156E-03   0.466233E-03
   0.519741E-03   0.555887E-03   0.575783E-03   0.583050E-03   0.583706E-03
   0.583413E-03   0.587609E-03   0.599916E-03   0.621897E-03   0.655031E-03
   0.699138E-03   0.753698E-03   0.817229E-03   0.887722E-03   0.962933E-03
   0.104101E-02   0.112009E-02   0.119886E-02   0.127603E-02   0.134974E-02
   0.141850E-02   0.148120E-02   0.153753E-02   0.158782E-02   0.163297E-02
   0.167446E-02   0.171451E-02   0.175623E-02   0.180372E-02   0.185929E-02
   0.192500E-02   0.200056E-02   0.208526E-02   0.217643E-02   0.226905E-02
   0.235594E-02   0.243158E-02   0.249150E-02   0.253342E-02   0.255243E-02
   0.254194E-02   0.249553E-02   0.241105E-02   0.228927E-02   0.213203E-02
   0.194052E-02   0.171765E-02   0.146734E-02   0.119958E-02   0.929247E-03
   0.672042E-03   0.440743E-03   0.242721E-03   0.801764E-04  -0.505002E-04
  -0.158192E-03  -0.253130E-03  -0.345406E-03  -0.443024E-03  -0.551572E-03
  -0.671686E-03  -0.800856E-03  -0.933516E-03  -0.106475E-02  -0.119011E-02
  -0.130614E-02  -0.140890E-02  -0.149368E-02  -0.155623E-02  -0.159459E-02
  -0.160935E-02  -0.160309E-02  -0.158004E-02  -0.154477E-02  -0.150271E-02
  -0.145934E-02  -0.142008E-02  -0.138960E-02  -0.136982E-02  -0.136162E-02
  -0.136394E-02  -0.137605E-02  -0.139853E-02  -0.143358E-02  -0.148285E-02
  -0.175048E-02  -0.182944E-02  -0.192088E-02  -0.202218E-02  -0.212905E-02
  -0.223450E-02  -0.233121E-02  -0.241249E-02  -0.247526E-02  -0.251828E-02
  -0.254309E-02  -0.255250E-02  -0.255081E-02  -0.254252E-02  -0.253307E-02
  -0.252612E-02  -0.252490E-02  -0.252998E-02  -0.254032E-02  -0.255392E-02
  -0.256831E-02  -0.258150E-02  -0.258892E-02  -0.258139E-02  -0.254783E-02
  -0.247872E-02  -0.236902E-02  -0.221771E-02  -0.202651E-02  -0.179930E-02
  -0.154238E-02  -0.126276E-02  -0.967921E-03  -0.668202E-03  -0.375316E-03
  -0.995430E-04   0.152186E-03   0.376838E-03   0.571238E-03   0.731505E-03
   0.856150E-03   0.945899E-03   0.100459E-02   0.103795E-02   0.105258E-02
   0.105485E-02   0.105092E-02   0.104524E-02   0.104112E-02   0.103989E-02
   0.104228E-02   0.104769E-02   0.105480E-02   0.106212E-02   0.106329E-02
   0.104582E-02   0.995340E-03   0.900687E-03   0.755967E-03   0.561392E-03
   0.321915E-03   0.460654E-04  -0.255505E-03  -0.572026E-03  -0.887846E-03
  -0.118457E-02  -0.144660E-02  -0.166394E-02  -0.183352E-02  -0.195861E-02
  -0.204847E-02  -0.211573E-02  -0.217336E-02  -0.223273E-02  -0.230171E-02
  -0.238492E-02  -0.247799E-02  -0.256937E-02  -0.264602E-02  -0.269717E-02
  -0.271539E-02  -0.269617E-02  -0.263469E-02  -0.252679E-02  -0.237154E-02
  -0.217205E-02  -0.193482E-02  -0.166831E-02  -0.138281E-02  -0.109091E-02
  -0.805300E-03  -0.535587E-03  -0.288065E-03  -0.649723E-04   0.134869E-03
   0.314003E-03   0.474841E-03   0.619856E-03   0.752057E-03   0.874487E-03
   0.989793E-03   0.110032E-02   0.120750E-02   0.131134E-02   0.141135E-02
   0.150671E-02   0.159680E-02   0.168165E-02   0.176101E-02   0.183566E-02
   0.190580E-02   0.196991E-02   0.202259E-02   0.205570E-02   0.206269E-02
   0.203979E-02   0.198669E-02   0.190657E-02   0.180739E-02   0.170439E-02
   0.161621E-02   0.155925E-02   0.154414E-02   0.157327E-02   0.163921E-02
   0.172795E-02   0.182329E-02   0.191143E-02   0.198154E-02   0.202761E-02
   0.204560E-02   0.203291E-02   0.198803E-02   0.191257E-02   0.181011E-02
   0.168637E-02   0.154747E-02   0.139985E-02   0.124872E-02   0.109800E-02
   0.950192E-03   0.806141E-03   0.666166E-03   0.529493E-03   0.395178E-03
   0.262414E-03   0.133947E-03   0.154906E-04  -0.867338E-04  -0.168858E-03
  -0.228945E-03  -0.268789E-03  -0.293755E-03  -0.311531E-03  -0.329751E-03
  -0.354479E-03  -0.389886E-03  -0.437450E-03  -0.497063E-03  -0.566618E-03
  -0.642195E-03  -0.718079E-03  -0.788031E-03  -0.847033E-03  -0.892214E-03
  -0.922537E-03  -0.938973E-03  -0.943999E-03  -0.940280E-03  -0.929679E-03
  -0.912270E-03  -0.887496E-03  -0.855144E-03  -0.815480E-03  -0.769168E-03
  -0.717240E-03  -0.661187E-03  -0.602201E-03  -0.541674E-03  -0.480484E-03
  -0.419518E-03  -0.359208E-03  -0.299690E-03  -0.241105E-03  -0.183306E-03
  -0.126150E-03  -0.693846E-04  -0.128237E-04   0.436167E-04   0.995671E-04
   0.153885E-03   0.205091E-03   0.252050E-03   0.294214E-03   0.331329E-03
   0.363613E-03   0.391900E-03   0.416861E-03   0.439249E-03   0.460046E-03
   0.479667E-03   0.498792E-03   0.517682E-03   0.536537E-03   0.555461E-03
   0.574271E-03   0.592946E-03   0.610707E-03   0.625263E-03   0.633097E-03
   0.631168E-03   0.617535E-03   0.591787E-03   0.554948E-03   0.508838E-03
   0.456288E-03   0.400431E-03   0.344170E-03   0.289926E-03   0.239302E-03
   0.192904E-03   0.150648E-03   0.111984E-03   0.757884E-04   0.407965E-04
   0.584453E-05  -0.301230E-04  -0.673957E-04  -0.106266E-03  -0.147029E-03
  -0.191472E-03  -0.242695E-03  -0.303290E-03  -0.374220E-03  -0.451845E-03
  -0.527252E-03  -0.590389E-03  -0.633050E-03  -0.650300E-03  -0.640809E-03
  -0.605356E-03  -0.543238E-03  -0.452094E-03  -0.331089E-03  -0.181502E-03
  -0.794979E-05   0.182337E-03   0.381581E-03   0.582408E-03   0.779056E-03
   0.967344E-03   0.114292E-02   0.130005E-02   0.143320E-02   0.153923E-02
   0.161740E-02   0.166820E-02   0.169186E-02   0.169022E-02   0.166609E-02
   0.162114E-02   0.155310E-02   0.145705E-02   0.132958E-02   0.117022E-02
   0.986012E-03   0.790265E-03   0.597293E-03   0.419312E-03   0.264522E-03
   0.136778E-03   0.355331E-04  -0.434969E-04  -0.106672E-03  -0.160896E-03
  -0.212369E-03  -0.264242E-03  -0.316298E-03  -0.366449E-03  -0.411927E-03
  -0.450523E-03  -0.480795E-03  -0.502844E-03  -0.517996E-03  -0.528326E-03
  -0.535836E-03  -0.542238E-03  -0.548329E-03  -0.553097E-03  -0.554561E-03
  -0.550739E-03  -0.540240E-03  -0.522784E-03  -0.498694E-03  -0.469487E-03
  -0.437587E-03  -0.405710E-03  -0.375980E-03  -0.349981E-03  -0.328459E-03
  -0.311386E-03  -0.298293E-03  -0.288177E-03  -0.279943E-03  -0.272418E-03
  -0.264608E-03  -0.255891E-03  -0.245798E-03  -0.234335E-03  -0.221594E-03
  -0.207889E-03  -0.193615E-03  -0.178910E-03  -0.162867E-03  -0.143008E-03
  -0.117278E-03  -0.842568E-04  -0.436326E-04   0.405914E-05   0.574563E-04
   0.114741E-03   0.174000E-03   0.233303E-03   0.290915E-03   0.345285E-03
   0.395471E-03   0.441012E-03   0.481866E-03   0.518501E-03   0.551467E-03
   0.581219E-03   0.607309E-03   0.628680E-03   0.644309E-03   0.653626E-03
   0.656741E-03   0.654088E-03   0.646658E-03   0.635578E-03   0.621999E-03
   0.607022E-03   0.591498E-03   0.576022E-03   0.560907E-03   0.546223E-03
   0.531975E-03   0.517985E-03   0.503925E-03   0.489302E-03   0.473595E-03
   0.456541E-03   0.438059E-03   0.418269E-03   0.397460E-03   0.376032E-03
   0.354336E-03   0.332591E-03   0.310709E-03   0.288637E-03   0.266345E-03
   0.243836E-03   0.221192E-03   0.198584E-03   0.176196E-03   0.154194E-03
   0.132636E-03   0.111435E-03   0.905136E-04   0.698169E-04   0.493471E-04
   0.292174E-04   0.947934E-05  -0.982538E-05  -0.287363E-04  -0.472847E-04
  -0.654162E-04  -0.830280E-04  -0.100008E-03  -0.116181E-03  -0.131376E-03
  -0.145201E-03  -0.157134E-03  -0.166712E-03  -0.173724E-03  -0.178162E-03
  -0.180288E-03  -0.180413E-03  -0.178917E-03  -0.176202E-03  -0.172615E-03
  -0.168454E-03  -0.163925E-03  -0.159258E-03  -0.154479E-03  -0.149546E-03
  -0.144250E-03  -0.138404E-03  -0.131880E-03  -0.124600E-03  -0.116094E-03
  -0.105584E-03  -0.924623E-04  -0.765332E-04  -0.579993E-04  -0.374343E-04
  -0.157119E-04   0.619882E-05   0.273555E-04   0.470124E-04   0.646985E-04
   0.801108E-04   0.931088E-04   0.103677E-03   0.111955E-03   0.118216E-03
   0.122809E-03   0.126097E-03   0.128428E-03   0.130060E-03   0.131177E-03
   0.131771E-03   0.131777E-03   0.131143E-03   0.129813E-03   0.127792E-03
   0.125151E-03   0.121922E-03   0.118117E-03   0.113700E-03   0.108653E-03
   0.103036E-03   0.969532E-04   0.905766E-04   0.840606E-04   0.775979E-04
   0.713975E-04   0.655801E-04   0.602620E-04   0.554518E-04   0.511145E-04
   0.471044E-04   0.432281E-04   0.393201E-04   0.352779E-04   0.310740E-04
   0.267435E-04   0.223160E-04   0.178352E-04   0.133490E-04   0.892951E-05
   0.466177E-05   0.643527E-06  -0.305915E-05  -0.637182E-05  -0.925598E-05
  -0.117084E-04  -0.137994E-04  -0.156812E-04  -0.174722E-04  -0.192253E-04
  -0.208901E-04  -0.223459E-04  -0.234644E-04  -0.241402E-04  -0.242813E-04
  -0.238117E-04  -0.227095E-04  -0.210254E-04  -0.188500E-04  -0.163133E-04
  -0.135500E-04  -0.106903E-04  -0.784879E-05  -0.511761E-05  -0.255907E-05
  -0.208121E-06   0.192691E-05   0.385050E-05   0.557842E-05   0.713400E-05
   0.853578E-05   0.979747E-05   0.109405E-04   0.119754E-04   0.129309E-04
   0.138214E-04   0.146478E-04   0.154058E-04   0.160741E-04   0.166328E-04
   0.170595E-04   0.173462E-04   0.174901E-04   0.175008E-04   0.173931E-04
   0.171856E-04   0.168983E-04   0.165499E-04   0.161551E-04   0.157236E-04
   0.152653E-04   0.147819E-04   0.142756E-04   0.137462E-04   0.131949E-04
   0.126262E-04   0.120430E-04   0.114522E-04   0.108589E-04   0.102684E-04
   0.968449E-05   0.911009E-05   0.854688E-05   0.799613E-05   0.745859E-05
   0.693398E-05   0.642203E-05   0.592223E-05   0.543385E-05   0.495615E-05
   0.448815E-05   0.402910E-05   0.357837E-05   0.313527E-05   0.269920E-05
   0.226969E-05   0.184646E-05   0.142923E-05   0.101783E-05   0.612238E-06
   0.212540E-06  -0.181026E-06
