PEER NGA STRONG MOTION DATABASE RECORD
SAN FERNANDO 02/09/71 14:00, BUENA VISTA - TAFT, 180 (USGS STATION 1)           
ACCELERATION TIME HISTORY IN UNITS OF G
NPTS=   5327, DT=   0.0050 SEC
   0.130894E-02   0.141865E-02   0.142622E-02   0.142544E-02   0.142444E-02
   0.142388E-02   0.142547E-02   0.142959E-02   0.143681E-02   0.144770E-02
   0.146141E-02   0.147692E-02   0.149279E-02   0.150749E-02   0.151996E-02
   0.152948E-02   0.153518E-02   0.153702E-02   0.153556E-02   0.153084E-02
   0.152397E-02   0.151593E-02   0.151061E-02   0.151098E-02   0.152017E-02
   0.154031E-02   0.157201E-02   0.161602E-02   0.167402E-02   0.174671E-02
   0.183441E-02   0.193549E-02   0.204795E-02   0.216890E-02   0.229513E-02
   0.242306E-02   0.255064E-02   0.267649E-02   0.279856E-02   0.291476E-02
   0.302380E-02   0.312392E-02   0.321367E-02   0.329181E-02   0.335519E-02
   0.339561E-02   0.340198E-02   0.336448E-02   0.327734E-02   0.313887E-02
   0.295342E-02   0.272678E-02   0.246619E-02   0.217739E-02   0.186499E-02
   0.153070E-02   0.117339E-02   0.789277E-03   0.381002E-03  -0.398622E-04
  -0.456510E-03  -0.847664E-03  -0.119344E-02  -0.147911E-02  -0.169309E-02
  -0.182876E-02  -0.188363E-02  -0.185771E-02  -0.175202E-02  -0.157203E-02
  -0.132652E-02  -0.102402E-02  -0.674333E-03  -0.286645E-03   0.120777E-03
   0.524359E-03   0.902264E-03   0.123886E-02   0.151323E-02   0.170090E-02
   0.178369E-02   0.175211E-02   0.160713E-02   0.135763E-02   0.102003E-02
   0.615171E-03   0.165789E-03  -0.307714E-03  -0.785131E-03  -0.124862E-02
  -0.167865E-02  -0.204416E-02  -0.230520E-02  -0.243106E-02  -0.241011E-02
  -0.225439E-02  -0.199101E-02  -0.165519E-02  -0.128321E-02  -0.905434E-03
  -0.544112E-03  -0.208851E-03   0.103408E-03   0.405616E-03   0.709440E-03
   0.101788E-02   0.132789E-02   0.163173E-02   0.192245E-02   0.219306E-02
   0.243726E-02   0.265343E-02   0.284353E-02   0.301000E-02   0.314450E-02
   0.323165E-02   0.325392E-02   0.318592E-02   0.299891E-02   0.267406E-02
   0.220324E-02   0.158885E-02   0.843636E-03  -0.555247E-05  -0.906363E-03
  -0.179087E-02  -0.259693E-02  -0.327796E-02  -0.380621E-02  -0.417368E-02
  -0.439218E-02  -0.448743E-02  -0.449421E-02  -0.444712E-02  -0.437635E-02
  -0.430464E-02  -0.424093E-02  -0.418341E-02  -0.412176E-02  -0.404497E-02
  -0.394944E-02  -0.383946E-02  -0.372069E-02  -0.359309E-02  -0.345450E-02
  -0.330209E-02  -0.314561E-02  -0.300841E-02  -0.291901E-02  -0.290555E-02
  -0.299260E-02  -0.318864E-02  -0.348086E-02  -0.384170E-02  -0.423351E-02
  -0.460970E-02  -0.492396E-02  -0.513126E-02  -0.519252E-02  -0.508452E-02
  -0.479818E-02  -0.433711E-02  -0.371720E-02  -0.296079E-02  -0.209304E-02
  -0.114033E-02  -0.122578E-03   0.946111E-03   0.204181E-02   0.312872E-02
   0.417003E-02   0.513481E-02   0.598457E-02   0.666914E-02   0.714578E-02
   0.739231E-02   0.739235E-02   0.713381E-02   0.662142E-02   0.587801E-02
   0.493932E-02   0.384437E-02   0.263718E-02   0.136233E-02   0.628033E-04
  -0.122393E-02  -0.246660E-02  -0.364249E-02  -0.474084E-02  -0.573874E-02
  -0.660007E-02  -0.729671E-02  -0.781493E-02  -0.816087E-02  -0.835576E-02
  -0.843196E-02  -0.842625E-02  -0.837456E-02  -0.829917E-02  -0.820970E-02
  -0.810517E-02  -0.798350E-02  -0.784401E-02  -0.768818E-02  -0.752003E-02
  -0.734294E-02  -0.716190E-02  -0.698327E-02  -0.681230E-02  -0.665314E-02
  -0.650741E-02  -0.637415E-02  -0.625077E-02  -0.613329E-02  -0.601865E-02
  -0.590492E-02  -0.579031E-02  -0.566473E-02  -0.549989E-02  -0.525645E-02
  -0.490088E-02  -0.440534E-02  -0.375035E-02  -0.293171E-02  -0.196054E-02
  -0.858010E-03   0.345769E-03   0.161760E-02   0.291779E-02   0.419780E-02
   0.541250E-02   0.652863E-02   0.752435E-02   0.837762E-02   0.905898E-02
   0.954165E-02   0.981396E-02   0.987322E-02   0.972116E-02   0.936966E-02
   0.884029E-02   0.816144E-02   0.736422E-02   0.647844E-02   0.552796E-02
   0.453011E-02   0.350466E-02   0.248179E-02   0.149880E-02   0.586336E-03
  -0.233147E-03  -0.949699E-03  -0.156179E-02  -0.207337E-02  -0.249295E-02
  -0.285166E-02  -0.320091E-02  -0.358983E-02  -0.405347E-02  -0.461374E-02
  -0.528329E-02  -0.606132E-02  -0.691502E-02  -0.778397E-02  -0.860503E-02
  -0.932408E-02  -0.990398E-02  -0.103244E-01  -0.105790E-01  -0.106641E-01
  -0.105838E-01  -0.103517E-01  -0.998826E-02  -0.951279E-02  -0.893841E-02
  -0.827851E-02  -0.754150E-02  -0.672941E-02  -0.584434E-02  -0.489045E-02
  -0.387732E-02  -0.281724E-02  -0.172683E-02  -0.626963E-03   0.462621E-03
   0.152209E-02   0.252448E-02   0.343640E-02   0.423402E-02   0.490626E-02
   0.545584E-02   0.589579E-02   0.624582E-02   0.651936E-02   0.672364E-02
   0.686295E-02   0.694250E-02   0.696649E-02   0.693535E-02   0.685123E-02
   0.672066E-02   0.656718E-02   0.642634E-02   0.633271E-02   0.631124E-02
   0.637313E-02   0.651684E-02   0.672381E-02   0.696394E-02   0.720400E-02
   0.740941E-02   0.753306E-02   0.751947E-02   0.732948E-02   0.694307E-02
   0.636129E-02   0.560235E-02   0.469763E-02   0.367963E-02   0.256862E-02
   0.137423E-02   0.112098E-03  -0.119300E-02  -0.251317E-02  -0.382016E-02
  -0.508866E-02  -0.629793E-02  -0.742767E-02  -0.845777E-02  -0.937734E-02
  -0.101849E-01  -0.108632E-01  -0.113738E-01  -0.116770E-01  -0.117485E-01
  -0.115769E-01  -0.111497E-01  -0.104588E-01  -0.950757E-02  -0.830042E-02
  -0.684587E-02  -0.516376E-02  -0.330622E-02  -0.135775E-02   0.590480E-03
   0.245624E-02   0.416570E-02   0.566132E-02   0.691562E-02   0.792955E-02
   0.870569E-02   0.923052E-02   0.949448E-02   0.949195E-02   0.922444E-02
   0.870594E-02   0.796230E-02   0.702563E-02   0.593420E-02   0.472853E-02
   0.344961E-02   0.213586E-02   0.840033E-03  -0.371174E-03  -0.144215E-02
  -0.233602E-02  -0.303070E-02  -0.351750E-02  -0.380750E-02  -0.392404E-02
  -0.389917E-02  -0.376766E-02  -0.356340E-02  -0.331198E-02  -0.302931E-02
  -0.272463E-02  -0.240261E-02  -0.206535E-02  -0.171467E-02  -0.135180E-02
  -0.978968E-03  -0.603304E-03  -0.240533E-03   0.924162E-04   0.380416E-03
   0.615348E-03   0.791029E-03   0.901295E-03   0.944046E-03   0.922538E-03
   0.846091E-03   0.735473E-03   0.623191E-03   0.542417E-03   0.520652E-03
   0.577753E-03   0.725749E-03   0.963461E-03   0.127483E-02   0.163273E-02
   0.200724E-02   0.237281E-02   0.270968E-02   0.300465E-02   0.324165E-02
   0.340829E-02   0.349668E-02   0.350057E-02   0.341447E-02   0.323732E-02
   0.297616E-02   0.264212E-02   0.224980E-02   0.181478E-02   0.135072E-02
   0.869679E-03   0.370889E-03  -0.157289E-03  -0.720107E-03  -0.131033E-02
  -0.191154E-02  -0.249599E-02  -0.303185E-02  -0.348885E-02  -0.383253E-02
  -0.403511E-02  -0.408267E-02  -0.397777E-02  -0.373820E-02  -0.339066E-02
  -0.296714E-02  -0.249815E-02  -0.201007E-02  -0.151610E-02  -0.101968E-02
  -0.517836E-03  -0.103999E-04   0.495445E-03   0.990547E-03   0.146421E-02
   0.191028E-02   0.231406E-02   0.265565E-02   0.291379E-02   0.307204E-02
   0.311798E-02   0.304741E-02   0.286683E-02   0.258747E-02   0.222534E-02
   0.179869E-02   0.132537E-02   0.819874E-03   0.295095E-03  -0.235268E-03
  -0.750739E-03  -0.122758E-02  -0.164742E-02  -0.199874E-02  -0.227822E-02
  -0.247571E-02  -0.256736E-02  -0.253160E-02  -0.235539E-02  -0.203626E-02
  -0.158070E-02  -0.100398E-02  -0.329401E-03   0.411538E-03   0.118377E-02
   0.195406E-02   0.269950E-02   0.340344E-02   0.405742E-02   0.465567E-02
   0.519957E-02   0.569500E-02   0.614913E-02   0.654199E-02   0.682651E-02
   0.695551E-02   0.689796E-02   0.664408E-02   0.620731E-02   0.561720E-02
   0.491460E-02   0.414178E-02   0.333239E-02   0.250418E-02   0.166391E-02
   0.823840E-03   0.195197E-05  -0.783515E-03  -0.151060E-02  -0.214313E-02
  -0.263985E-02  -0.297108E-02  -0.312560E-02  -0.311263E-02  -0.295620E-02
  -0.269044E-02  -0.235362E-02  -0.198044E-02  -0.159947E-02  -0.122708E-02
  -0.864212E-03  -0.500018E-03  -0.119803E-03   0.289978E-03   0.739564E-03
   0.123420E-02   0.177275E-02   0.234632E-02   0.293601E-02   0.351845E-02
   0.407130E-02   0.457604E-02   0.501701E-02   0.538809E-02   0.569119E-02
   0.593175E-02   0.610743E-02   0.620686E-02   0.622065E-02   0.613863E-02
   0.594888E-02   0.564342E-02   0.522220E-02   0.469581E-02   0.408214E-02
   0.340477E-02   0.268823E-02   0.195968E-02   0.125403E-02   0.613452E-03
   0.697350E-04  -0.359269E-03  -0.672990E-03  -0.885455E-03  -0.101905E-02
  -0.110173E-02  -0.115945E-02  -0.121466E-02  -0.128377E-02  -0.137824E-02
  -0.150539E-02  -0.166600E-02  -0.185555E-02  -0.206522E-02  -0.228426E-02
  -0.250264E-02  -0.271376E-02  -0.291874E-02  -0.312752E-02  -0.335678E-02
  -0.362010E-02  -0.392774E-02  -0.428431E-02  -0.468762E-02  -0.513010E-02
  -0.558380E-02  -0.599619E-02  -0.630624E-02  -0.646595E-02  -0.644981E-02
  -0.625809E-02  -0.591202E-02  -0.544810E-02  -0.490713E-02  -0.432691E-02
  -0.373153E-02  -0.313115E-02  -0.252775E-02  -0.192059E-02  -0.131022E-02
  -0.699247E-03  -0.903979E-04   0.509751E-03   0.108553E-02   0.161748E-02
   0.209009E-02   0.249331E-02   0.282180E-02   0.307277E-02   0.324852E-02
   0.335667E-02   0.339879E-02   0.336741E-02   0.325684E-02   0.306556E-02
   0.280283E-02   0.248742E-02   0.214118E-02   0.178527E-02   0.143654E-02
   0.110325E-02   0.789479E-03   0.504696E-03   0.274760E-03   0.130423E-03
   0.961769E-04   0.185065E-03   0.401377E-03   0.737448E-03   0.117719E-02
   0.169912E-02   0.228165E-02   0.290412E-02   0.355007E-02   0.420285E-02
   0.484664E-02   0.546614E-02   0.604999E-02   0.658587E-02   0.705694E-02
   0.744537E-02   0.773718E-02   0.791175E-02   0.794605E-02   0.782617E-02
   0.755172E-02   0.713083E-02   0.658020E-02   0.592332E-02   0.518935E-02
   0.441343E-02   0.362953E-02   0.286763E-02   0.216094E-02   0.154118E-02
   0.102877E-02   0.626132E-03   0.317582E-03   0.795968E-04  -0.108141E-03
  -0.258232E-03  -0.378637E-03  -0.473377E-03  -0.539597E-03  -0.567320E-03
  -0.547749E-03  -0.479534E-03  -0.372458E-03  -0.244371E-03  -0.117136E-03
  -0.141309E-04   0.471322E-04   0.515369E-04  -0.138587E-04  -0.155434E-03
  -0.371087E-03  -0.651607E-03  -0.980297E-03  -0.133629E-02  -0.169958E-02
  -0.205370E-02  -0.238497E-02  -0.268113E-02  -0.293474E-02  -0.314341E-02
  -0.330809E-02  -0.343065E-02  -0.351532E-02  -0.356812E-02  -0.359137E-02
  -0.358378E-02  -0.354357E-02  -0.347026E-02  -0.336506E-02  -0.323167E-02
  -0.307393E-02  -0.289613E-02  -0.270366E-02  -0.250116E-02  -0.229303E-02
  -0.207935E-02  -0.185699E-02  -0.162195E-02  -0.137105E-02  -0.110279E-02
  -0.817780E-03  -0.518378E-03  -0.208835E-03   0.106765E-03   0.424245E-03
   0.740531E-03   0.105192E-02   0.135599E-02   0.165025E-02   0.193399E-02
   0.220839E-02   0.247537E-02   0.273837E-02   0.300072E-02   0.326464E-02
   0.352580E-02   0.376476E-02   0.395547E-02   0.407467E-02   0.410791E-02
   0.405219E-02   0.391405E-02   0.370837E-02   0.345281E-02   0.316838E-02
   0.288104E-02   0.263021E-02   0.245973E-02   0.240361E-02   0.247860E-02
   0.268433E-02   0.300698E-02   0.342267E-02   0.390176E-02   0.441209E-02
   0.491126E-02   0.535271E-02   0.569992E-02   0.593169E-02   0.602714E-02
   0.596183E-02   0.571830E-02   0.529471E-02   0.470455E-02   0.397300E-02
   0.312691E-02   0.219101E-02   0.118936E-02   0.152413E-03  -0.882347E-03
  -0.187963E-02  -0.281988E-02  -0.370370E-02  -0.454679E-02  -0.537041E-02
  -0.618245E-02  -0.697295E-02  -0.772143E-02  -0.840396E-02  -0.898544E-02
  -0.942700E-02  -0.970157E-02  -0.980048E-02  -0.973384E-02  -0.951762E-02
  -0.916716E-02  -0.870169E-02  -0.814340E-02  -0.751297E-02  -0.682841E-02
  -0.610376E-02  -0.535068E-02  -0.457777E-02  -0.378991E-02  -0.298886E-02
  -0.217401E-02  -0.134808E-02  -0.525467E-03   0.268732E-03   0.101140E-02
   0.168023E-02   0.225498E-02   0.271805E-02   0.306149E-02   0.327030E-02
   0.332064E-02   0.319708E-02   0.289863E-02   0.243809E-02   0.183935E-02
   0.113090E-02   0.345111E-03  -0.485378E-03  -0.130956E-02  -0.205436E-02
  -0.265115E-02  -0.305203E-02  -0.323943E-02  -0.322350E-02  -0.303915E-02
  -0.273396E-02  -0.235949E-02  -0.196107E-02  -0.157320E-02  -0.121443E-02
  -0.890422E-03  -0.596852E-03  -0.324135E-03  -0.662548E-04   0.171484E-03
   0.377177E-03   0.539394E-03   0.650335E-03   0.707443E-03   0.716321E-03
   0.688476E-03   0.638040E-03   0.579259E-03   0.524431E-03   0.484908E-03
   0.469730E-03   0.484444E-03   0.529468E-03   0.602375E-03   0.700077E-03
   0.818888E-03   0.955185E-03   0.110410E-02   0.125825E-02   0.140578E-02
   0.153583E-02   0.163968E-02   0.171469E-02   0.176185E-02   0.178682E-02
   0.179572E-02   0.179623E-02   0.179248E-02   0.178575E-02   0.177403E-02
   0.175558E-02   0.172811E-02   0.168978E-02   0.163309E-02   0.154350E-02
   0.140578E-02   0.120982E-02   0.952882E-03   0.642975E-03   0.298581E-03
  -0.566713E-04  -0.400027E-03  -0.714303E-03  -0.987266E-03  -0.120945E-02
  -0.137598E-02  -0.148730E-02  -0.153975E-02  -0.152346E-02  -0.143094E-02
  -0.126110E-02  -0.101598E-02  -0.701897E-03  -0.327267E-03   0.954446E-04
   0.546296E-03   0.100065E-02   0.143747E-02   0.184031E-02   0.220120E-02
   0.251888E-02   0.279932E-02   0.305383E-02   0.329447E-02   0.352874E-02
   0.375300E-02   0.395765E-02   0.413119E-02   0.426138E-02   0.433891E-02
   0.435747E-02   0.430828E-02   0.418188E-02   0.397582E-02   0.369830E-02
   0.336702E-02   0.300285E-02   0.262547E-02   0.224981E-02   0.188372E-02
   0.153045E-02   0.118933E-02   0.863221E-03   0.561620E-03   0.297786E-03
   0.825111E-04  -0.780810E-04  -0.182921E-03  -0.234377E-03  -0.238977E-03
  -0.206830E-03  -0.148654E-03  -0.767215E-04  -0.572528E-05   0.487444E-04
   0.752404E-04   0.746378E-04   0.653101E-04   0.732742E-04   0.123369E-03
   0.223006E-03   0.360095E-03   0.510587E-03   0.648380E-03   0.749463E-03
   0.795668E-03   0.777687E-03   0.695034E-03   0.555304E-03   0.365058E-03
   0.127129E-03  -0.156054E-03  -0.481197E-03  -0.848349E-03  -0.126758E-02
  -0.175243E-02  -0.230155E-02  -0.289475E-02  -0.350416E-02  -0.410184E-02
  -0.466211E-02  -0.516154E-02  -0.558247E-02  -0.590831E-02  -0.611754E-02
  -0.619297E-02  -0.612759E-02  -0.593033E-02  -0.562347E-02  -0.523665E-02
  -0.480028E-02  -0.433399E-02  -0.383878E-02  -0.330452E-02  -0.273052E-02
  -0.213345E-02  -0.153803E-02  -0.968945E-03  -0.444559E-03   0.257747E-04
   0.442998E-03   0.816132E-03   0.115733E-02   0.145970E-02   0.169646E-02
   0.183925E-02   0.186774E-02   0.177719E-02   0.157582E-02   0.128174E-02
   0.920387E-03   0.518321E-03   0.103584E-03  -0.297200E-03  -0.663847E-03
  -0.986328E-03  -0.126191E-02  -0.149202E-02  -0.166967E-02  -0.177766E-02
  -0.180224E-02  -0.173232E-02  -0.155825E-02  -0.127395E-02  -0.882041E-03
  -0.399447E-03   0.141115E-03   0.700580E-03   0.124221E-02   0.173664E-02
   0.215478E-02   0.247092E-02   0.267206E-02   0.275774E-02   0.274081E-02
   0.263730E-02   0.245296E-02   0.218195E-02   0.181724E-02   0.135791E-02
   0.814177E-03   0.210287E-03  -0.424659E-03  -0.106662E-02  -0.170526E-02
  -0.234315E-02  -0.298751E-02  -0.363277E-02  -0.425485E-02  -0.482294E-02
  -0.531131E-02  -0.569660E-02  -0.596047E-02  -0.609617E-02  -0.611002E-02
  -0.601327E-02  -0.581614E-02  -0.552821E-02  -0.515998E-02  -0.471802E-02
  -0.420122E-02  -0.360749E-02  -0.293572E-02  -0.218376E-02  -0.135231E-02
  -0.452968E-03   0.492794E-03   0.145809E-02   0.240966E-02   0.329886E-02
   0.407327E-02   0.469411E-02   0.514406E-02   0.542964E-02   0.557406E-02
   0.560984E-02   0.556576E-02   0.546551E-02   0.532604E-02   0.515177E-02
   0.493607E-02   0.466954E-02   0.434775E-02   0.397473E-02   0.356123E-02
   0.312459E-02   0.268805E-02   0.227348E-02   0.189694E-02   0.156501E-02
   0.127629E-02   0.102270E-02   0.799321E-03   0.607822E-03   0.450646E-03
   0.327653E-03   0.224850E-03   0.107355E-03  -0.673814E-04  -0.336051E-03
  -0.719987E-03  -0.122521E-02  -0.184446E-02  -0.256534E-02  -0.337010E-02
  -0.423574E-02  -0.511377E-02  -0.593098E-02  -0.662155E-02  -0.714019E-02
  -0.747215E-02  -0.763375E-02  -0.766241E-02  -0.760634E-02  -0.751241E-02
  -0.740353E-02  -0.727358E-02  -0.709908E-02  -0.685524E-02  -0.652488E-02
  -0.611040E-02  -0.562815E-02  -0.510204E-02  -0.455420E-02  -0.400157E-02
  -0.345459E-02  -0.291833E-02  -0.239454E-02  -0.188159E-02  -0.137712E-02
  -0.877788E-03  -0.376498E-03   0.144484E-03   0.711874E-03   0.133675E-02
   0.200373E-02   0.268121E-02   0.333299E-02   0.392936E-02   0.445116E-02
   0.489048E-02   0.525189E-02   0.554671E-02   0.578927E-02   0.599369E-02
   0.615985E-02   0.627251E-02   0.631355E-02   0.626581E-02   0.611280E-02
   0.584578E-02   0.546557E-02   0.498268E-02   0.440528E-02   0.373547E-02
   0.297852E-02   0.214589E-02   0.125573E-02   0.329581E-03  -0.611270E-03
  -0.154713E-02  -0.246492E-02  -0.335385E-02  -0.420498E-02  -0.501082E-02
  -0.576533E-02  -0.646499E-02  -0.710235E-02  -0.765012E-02  -0.806488E-02
  -0.831135E-02  -0.837011E-02  -0.824505E-02  -0.795815E-02  -0.754431E-02
  -0.703661E-02  -0.646284E-02  -0.584389E-02  -0.519783E-02  -0.454097E-02
  -0.388733E-02  -0.324757E-02  -0.262745E-02  -0.203529E-02  -0.148419E-02
  -0.985715E-03  -0.547066E-03  -0.169735E-03   0.147736E-03   0.401009E-03
   0.584069E-03   0.694217E-03   0.733120E-03   0.709914E-03   0.638709E-03
   0.540843E-03   0.435600E-03   0.337491E-03   0.247158E-03   0.153107E-03
   0.403302E-04  -0.104406E-03  -0.285720E-03  -0.487302E-03  -0.676915E-03
  -0.820060E-03  -0.890501E-03  -0.873558E-03  -0.770118E-03  -0.592468E-03
  -0.360632E-03  -0.972509E-04   0.178853E-03   0.455286E-03   0.725679E-03
   0.982838E-03   0.121459E-02   0.141027E-02   0.156198E-02   0.166295E-02
   0.170264E-02   0.167258E-02   0.156936E-02   0.139909E-02   0.117692E-02
   0.921531E-03   0.651241E-03   0.368616E-03   0.530348E-04  -0.326926E-03
  -0.784246E-03  -0.130545E-02  -0.186494E-02  -0.242361E-02  -0.293475E-02
  -0.335447E-02  -0.365028E-02  -0.380309E-02  -0.380730E-02  -0.367426E-02
  -0.342649E-02  -0.309554E-02  -0.271524E-02  -0.231938E-02  -0.193252E-02
  -0.157093E-02  -0.123753E-02  -0.922140E-03  -0.608806E-03  -0.281581E-03
   0.740415E-04   0.465816E-03   0.897206E-03   0.136774E-02   0.187743E-02
   0.242408E-02   0.299613E-02   0.357199E-02   0.412526E-02   0.463331E-02
   0.508187E-02   0.545972E-02   0.574212E-02   0.589275E-02   0.588310E-02
   0.568774E-02   0.528965E-02   0.469265E-02   0.392565E-02   0.303269E-02
   0.206330E-02   0.106661E-02   0.887801E-04  -0.834717E-03  -0.168500E-02
  -0.246357E-02  -0.318471E-02  -0.385714E-02  -0.447162E-02  -0.500856E-02
  -0.544935E-02  -0.577269E-02  -0.595860E-02  -0.599693E-02  -0.589247E-02
  -0.566108E-02  -0.532877E-02  -0.492030E-02  -0.445448E-02  -0.394190E-02
  -0.339531E-02  -0.283140E-02  -0.227138E-02  -0.173292E-02  -0.122862E-02
  -0.762504E-03  -0.330388E-03   0.767070E-04   0.469438E-03   0.858549E-03
   0.124529E-02   0.162254E-02   0.197985E-02   0.230839E-02   0.259993E-02
   0.284293E-02   0.302304E-02   0.313097E-02   0.316464E-02   0.312915E-02
   0.303180E-02   0.287940E-02   0.267918E-02   0.243890E-02   0.216749E-02
   0.187301E-02   0.156327E-02   0.124456E-02   0.920610E-03   0.596274E-03
   0.284248E-03   0.103778E-04  -0.193352E-03  -0.302856E-03  -0.304331E-03
  -0.192843E-03   0.300528E-04   0.352679E-03   0.760501E-03   0.123716E-02
   0.176694E-02   0.233270E-02   0.291123E-02   0.346560E-02   0.395722E-02
   0.435723E-02   0.465014E-02   0.483575E-02   0.492297E-02   0.492460E-02
   0.485758E-02   0.474111E-02   0.459292E-02   0.443272E-02   0.427749E-02
   0.414224E-02   0.403376E-02   0.395422E-02   0.390110E-02   0.386784E-02
   0.384765E-02   0.383260E-02   0.381437E-02   0.377619E-02   0.369641E-02
   0.355707E-02   0.334798E-02   0.306785E-02   0.272310E-02   0.232522E-02
   0.188834E-02   0.142783E-02   0.956874E-03   0.487015E-03   0.273620E-04
  -0.413389E-03  -0.819717E-03  -0.115214E-02  -0.137116E-02  -0.146396E-02
  -0.144122E-02  -0.131787E-02  -0.110672E-02  -0.821885E-03  -0.476855E-03
  -0.832440E-04   0.353138E-03   0.831155E-03   0.134914E-02   0.190491E-02
   0.248959E-02   0.309025E-02   0.369270E-02   0.428294E-02   0.484789E-02
   0.536686E-02   0.580155E-02   0.610550E-02   0.624436E-02   0.620389E-02
   0.599245E-02   0.563248E-02   0.514643E-02   0.454670E-02   0.384902E-02
   0.307290E-02   0.224931E-02   0.141313E-02   0.605142E-03  -0.132657E-03
  -0.756990E-03  -0.122634E-02  -0.151432E-02  -0.161587E-02  -0.154714E-02
  -0.134338E-02  -0.104768E-02  -0.702799E-03  -0.345368E-03  -0.174232E-05
   0.312920E-03   0.594395E-03   0.843450E-03   0.106262E-02   0.125609E-02
   0.142903E-02   0.158511E-02   0.172677E-02   0.185479E-02   0.197009E-02
   0.207452E-02   0.216688E-02   0.224589E-02   0.231048E-02   0.237052E-02
   0.244876E-02   0.256959E-02   0.274564E-02   0.295776E-02   0.315846E-02
   0.329588E-02   0.332826E-02   0.323127E-02   0.300103E-02   0.265207E-02
   0.221864E-02   0.174586E-02   0.127762E-02   0.847804E-03   0.479242E-03
   0.180698E-03  -0.399527E-04  -0.176525E-03  -0.228885E-03  -0.203863E-03
  -0.114035E-03   0.235128E-04   0.188560E-03   0.366112E-03   0.547358E-03
   0.732760E-03   0.926716E-03   0.113431E-02   0.135929E-02   0.160355E-02
   0.186615E-02   0.214364E-02   0.243165E-02   0.272146E-02   0.300422E-02
   0.327199E-02   0.351934E-02   0.374371E-02   0.394329E-02   0.411991E-02
   0.427484E-02   0.439907E-02   0.447048E-02   0.446404E-02   0.435729E-02
   0.414048E-02   0.380858E-02   0.336161E-02   0.280590E-02   0.215506E-02
   0.142298E-02   0.621755E-03  -0.241424E-03  -0.115774E-02  -0.211635E-02
  -0.310389E-02  -0.410590E-02  -0.509838E-02  -0.604841E-02  -0.692741E-02
  -0.770482E-02  -0.834548E-02  -0.881873E-02  -0.909872E-02  -0.917201E-02
  -0.904282E-02  -0.873130E-02  -0.825971E-02  -0.764512E-02  -0.690578E-02
  -0.606063E-02  -0.512794E-02  -0.412363E-02  -0.306335E-02  -0.196087E-02
  -0.827460E-03   0.331349E-03   0.150891E-02   0.269358E-02   0.386124E-02
   0.498346E-02   0.603470E-02   0.699363E-02   0.784528E-02   0.857672E-02
   0.918038E-02   0.965223E-02   0.998766E-02   0.101887E-01   0.102597E-01
   0.102048E-01   0.100299E-01   0.972525E-02   0.926965E-02   0.864822E-02
   0.786389E-02   0.693830E-02   0.590798E-02   0.481265E-02   0.369492E-02
   0.259349E-02   0.154015E-02   0.553803E-03  -0.356016E-03  -0.118459E-02
  -0.193541E-02  -0.261048E-02  -0.321097E-02  -0.373621E-02  -0.417490E-02
  -0.450797E-02  -0.472168E-02  -0.480988E-02  -0.477613E-02  -0.463085E-02
  -0.439251E-02  -0.408399E-02  -0.372962E-02  -0.335402E-02  -0.297694E-02
  -0.261370E-02  -0.227325E-02  -0.196066E-02  -0.168013E-02  -0.143179E-02
  -0.121253E-02  -0.101473E-02  -0.826298E-03  -0.632697E-03  -0.422035E-03
  -0.191711E-03   0.461348E-04   0.269812E-03   0.455004E-03   0.585026E-03
   0.639695E-03   0.598426E-03   0.449443E-03   0.189648E-03  -0.175540E-03
  -0.632827E-03  -0.116330E-02  -0.173679E-02  -0.232014E-02  -0.287066E-02
  -0.334463E-02  -0.370896E-02  -0.394668E-02  -0.404771E-02  -0.400394E-02
  -0.381516E-02  -0.349157E-02  -0.305869E-02  -0.255625E-02  -0.203031E-02
  -0.151996E-02  -0.105441E-02  -0.648477E-03  -0.305069E-03  -0.172308E-04
   0.226848E-03   0.441593E-03   0.641767E-03   0.838673E-03   0.103921E-02
   0.124236E-02   0.144538E-02   0.164246E-02   0.182918E-02   0.200219E-02
   0.216043E-02   0.230082E-02   0.241977E-02   0.251384E-02   0.258231E-02
   0.262706E-02   0.265130E-02   0.266061E-02   0.265831E-02   0.263783E-02
   0.258054E-02   0.246109E-02   0.225555E-02   0.194815E-02   0.153259E-02
   0.101746E-02   0.422659E-03  -0.224500E-03  -0.895940E-03  -0.155608E-02
  -0.216728E-02  -0.270009E-02  -0.313814E-02  -0.347866E-02  -0.372526E-02
  -0.388866E-02  -0.398405E-02  -0.402905E-02  -0.404092E-02  -0.403539E-02
  -0.402445E-02  -0.401552E-02  -0.401225E-02  -0.401613E-02  -0.402465E-02
  -0.403139E-02  -0.402149E-02  -0.397670E-02  -0.388116E-02  -0.372518E-02
  -0.350180E-02  -0.321012E-02  -0.285489E-02  -0.244678E-02  -0.201521E-02
  -0.160378E-02  -0.125405E-02  -0.998153E-03  -0.857481E-03  -0.843309E-03
  -0.951839E-03  -0.116884E-02  -0.147174E-02  -0.183928E-02  -0.225266E-02
  -0.269637E-02  -0.315901E-02  -0.363075E-02  -0.410379E-02  -0.457067E-02
  -0.502585E-02  -0.546012E-02  -0.584448E-02  -0.613494E-02  -0.629145E-02
  -0.628611E-02  -0.610422E-02  -0.574888E-02  -0.523935E-02  -0.460593E-02
  -0.388600E-02  -0.311596E-02  -0.233391E-02  -0.157653E-02  -0.871764E-03
  -0.236339E-03   0.326278E-03   0.813462E-03   0.122299E-02   0.155476E-02
   0.181377E-02   0.200158E-02   0.211286E-02   0.214192E-02   0.208840E-02
   0.195777E-02   0.176586E-02   0.153143E-02   0.127652E-02   0.101875E-02
   0.771966E-03   0.544985E-03   0.350235E-03   0.206596E-03   0.130996E-03
   0.133677E-03   0.213897E-03   0.355606E-03   0.533092E-03   0.716712E-03
   0.882469E-03   0.101348E-02   0.110204E-02   0.114685E-02   0.115341E-02
   0.112814E-02   0.107894E-02   0.101449E-02   0.942180E-03   0.867469E-03
   0.793951E-03   0.722882E-03   0.654690E-03   0.588400E-03   0.522748E-03
   0.459677E-03   0.401345E-03   0.350791E-03   0.310644E-03   0.281347E-03
   0.263195E-03   0.254052E-03   0.252277E-03   0.255125E-03   0.260365E-03
   0.266328E-03   0.271890E-03   0.278888E-03   0.290211E-03   0.309451E-03
   0.338933E-03   0.379450E-03   0.432221E-03   0.501093E-03   0.590343E-03
   0.703775E-03   0.841848E-03   0.100306E-02   0.118101E-02   0.136916E-02
   0.156117E-02   0.174798E-02   0.191364E-02   0.203476E-02   0.209278E-02
   0.207197E-02   0.196133E-02   0.175703E-02   0.146462E-02   0.109785E-02
   0.676287E-03   0.223410E-03  -0.239957E-03  -0.695067E-03  -0.111463E-02
  -0.145973E-02  -0.169457E-02  -0.179821E-02  -0.177216E-02  -0.163581E-02
  -0.141991E-02  -0.115819E-02  -0.885122E-03  -0.636232E-03  -0.446406E-03
  -0.338243E-03  -0.321580E-03  -0.392566E-03  -0.538512E-03  -0.740304E-03
  -0.978084E-03  -0.123218E-02  -0.148686E-02  -0.172663E-02  -0.193924E-02
  -0.211650E-02  -0.225640E-02  -0.236254E-02  -0.244084E-02  -0.249945E-02
  -0.254379E-02  -0.257801E-02  -0.260565E-02  -0.262756E-02  -0.264510E-02
  -0.265302E-02  -0.264280E-02  -0.260546E-02  -0.253511E-02  -0.242498E-02
  -0.226641E-02  -0.205118E-02  -0.177520E-02  -0.144145E-02  -0.105975E-02
  -0.646914E-03  -0.221276E-03   0.198994E-03   0.591686E-03   0.932344E-03
   0.120484E-02   0.140123E-02   0.152414E-02   0.158413E-02   0.159690E-02
   0.157962E-02   0.154848E-02   0.151566E-02   0.148884E-02   0.146514E-02
   0.143468E-02   0.138537E-02   0.130562E-02   0.118780E-02   0.102612E-02
   0.821858E-03   0.579767E-03   0.308679E-03   0.173519E-04  -0.287309E-03
  -0.599989E-03  -0.916113E-03  -0.121757E-02  -0.146326E-02  -0.160566E-02
  -0.160869E-02  -0.146201E-02  -0.118041E-02  -0.796080E-03  -0.347883E-03
   0.123138E-03   0.574417E-03   0.966856E-03   0.127425E-02   0.148585E-02
   0.160375E-02   0.163607E-02   0.159218E-02   0.148491E-02   0.132739E-02
   0.113491E-02   0.919437E-03   0.693023E-03   0.468664E-03   0.257510E-03
   0.679549E-04  -0.942409E-04  -0.222184E-03  -0.311053E-03  -0.358321E-03
  -0.365510E-03  -0.337431E-03  -0.278486E-03  -0.191590E-03  -0.798349E-04
   0.538389E-04   0.203400E-03   0.349733E-03   0.460606E-03   0.504671E-03
   0.460430E-03   0.319778E-03   0.851023E-04  -0.229664E-03  -0.605526E-03
  -0.102039E-02  -0.145291E-02  -0.187971E-02  -0.227558E-02  -0.262084E-02
  -0.289764E-02  -0.308624E-02  -0.317445E-02  -0.315935E-02  -0.304489E-02
  -0.283496E-02  -0.253363E-02  -0.214911E-02  -0.169364E-02  -0.119285E-02
  -0.683716E-03  -0.200893E-03   0.228349E-03   0.582235E-03   0.840174E-03
   0.988570E-03   0.102440E-02   0.955913E-03   0.798825E-03   0.571633E-03
   0.294229E-03  -0.151492E-04  -0.341263E-03  -0.667839E-03  -0.976880E-03
  -0.125179E-02  -0.148159E-02  -0.166231E-02  -0.179672E-02  -0.189152E-02
  -0.195571E-02  -0.199632E-02  -0.202102E-02  -0.203283E-02  -0.202643E-02
  -0.198835E-02  -0.190608E-02  -0.177115E-02  -0.158082E-02  -0.133650E-02
  -0.104215E-02  -0.703695E-03  -0.329397E-03   0.717998E-04   0.493976E-03
   0.937534E-03   0.140569E-02   0.189921E-02   0.240966E-02   0.291815E-02
   0.339795E-02   0.380927E-02   0.411013E-02   0.426956E-02   0.427541E-02
   0.413335E-02   0.386380E-02   0.349653E-02   0.306566E-02   0.260284E-02
   0.213411E-02   0.167732E-02   0.124470E-02   0.842668E-03   0.472143E-03
   0.129448E-03  -0.191700E-03  -0.498796E-03  -0.796624E-03  -0.108053E-02
  -0.133837E-02  -0.155809E-02  -0.173039E-02  -0.185180E-02  -0.192529E-02
  -0.195768E-02  -0.195979E-02  -0.194242E-02  -0.191616E-02  -0.188767E-02
  -0.185945E-02  -0.182926E-02  -0.179435E-02  -0.175093E-02  -0.169711E-02
  -0.163456E-02  -0.156799E-02  -0.150389E-02  -0.144782E-02  -0.140343E-02
  -0.137175E-02  -0.134923E-02  -0.133026E-02  -0.130843E-02  -0.127853E-02
  -0.123709E-02  -0.118374E-02  -0.111834E-02  -0.104339E-02  -0.961658E-03
  -0.876249E-03  -0.789017E-03  -0.696433E-03  -0.588398E-03  -0.452522E-03
  -0.280107E-03  -0.655785E-04   0.197168E-03   0.519300E-03   0.912363E-03
   0.138173E-02   0.192287E-02   0.251676E-02   0.313573E-02   0.375119E-02
   0.434026E-02   0.488430E-02   0.536623E-02   0.577272E-02   0.609881E-02
   0.634732E-02   0.652438E-02   0.663406E-02   0.667959E-02   0.666554E-02
   0.659807E-02   0.647233E-02   0.627256E-02   0.598430E-02   0.559903E-02
   0.511848E-02   0.454721E-02   0.389206E-02   0.316345E-02   0.237499E-02
   0.154553E-02   0.703742E-03  -0.115532E-03  -0.881156E-03  -0.157220E-02
  -0.217620E-02  -0.269204E-02  -0.312670E-02  -0.348413E-02  -0.375436E-02
  -0.392348E-02  -0.398050E-02  -0.392392E-02  -0.376437E-02  -0.352238E-02
  -0.322425E-02  -0.289638E-02  -0.256145E-02  -0.223642E-02  -0.193128E-02
  -0.164808E-02  -0.138334E-02  -0.112987E-02  -0.879614E-03  -0.625211E-03
  -0.363272E-03  -0.106063E-03   0.118651E-03   0.282943E-03   0.365360E-03
   0.357047E-03   0.262262E-03   0.988230E-04  -0.108588E-03  -0.333979E-03
  -0.554729E-03  -0.754606E-03  -0.925552E-03  -0.106368E-02  -0.116743E-02
  -0.123808E-02  -0.127895E-02  -0.129454E-02  -0.128197E-02  -0.122184E-02
  -0.108323E-02  -0.840986E-03  -0.482989E-03  -0.181910E-04   0.528052E-03
   0.112396E-02   0.173673E-02   0.233956E-02   0.291348E-02   0.344754E-02
   0.393738E-02   0.438488E-02   0.479576E-02   0.516943E-02   0.548763E-02
   0.572810E-02   0.587017E-02   0.590705E-02   0.584566E-02   0.570693E-02
   0.551712E-02   0.529663E-02   0.505172E-02   0.477890E-02   0.447105E-02
   0.412098E-02   0.372162E-02   0.326603E-02   0.274975E-02   0.217460E-02
   0.154733E-02   0.878416E-03   0.184441E-03  -0.513945E-03  -0.119774E-02
  -0.185125E-02  -0.245452E-02  -0.298127E-02  -0.340935E-02  -0.372651E-02
  -0.393313E-02  -0.404002E-02  -0.406303E-02  -0.402184E-02  -0.393713E-02
  -0.382721E-02  -0.370765E-02  -0.358900E-02  -0.347764E-02  -0.338004E-02
  -0.330369E-02  -0.325411E-02  -0.323352E-02  -0.324375E-02  -0.329080E-02
  -0.338524E-02  -0.353565E-02  -0.374516E-02  -0.401128E-02  -0.432227E-02
  -0.465894E-02  -0.499837E-02  -0.532041E-02  -0.561062E-02  -0.585842E-02
  -0.605592E-02  -0.620098E-02  -0.629578E-02  -0.634665E-02  -0.635282E-02
  -0.630410E-02  -0.619046E-02  -0.600683E-02  -0.575176E-02  -0.541713E-02
  -0.497602E-02  -0.439757E-02  -0.365977E-02  -0.275824E-02  -0.171585E-02
  -0.580665E-03   0.588630E-03   0.173846E-02   0.282759E-02   0.382576E-02
   0.470474E-02   0.544409E-02   0.603528E-02   0.648709E-02   0.681471E-02
   0.703509E-02   0.716545E-02   0.722340E-02   0.722583E-02   0.718532E-02
   0.710841E-02   0.699806E-02   0.685630E-02   0.668516E-02   0.648566E-02
   0.625605E-02   0.599524E-02   0.570366E-02   0.538462E-02   0.504221E-02
   0.468215E-02   0.430350E-02   0.390008E-02   0.346401E-02   0.299091E-02
   0.248028E-02   0.193809E-02   0.137540E-02   0.804696E-03   0.236726E-03
  -0.325478E-03  -0.887268E-03  -0.145639E-02  -0.204052E-02  -0.263416E-02
  -0.321527E-02  -0.375812E-02  -0.423982E-02  -0.464409E-02  -0.495760E-02
  -0.516923E-02  -0.527743E-02  -0.528976E-02  -0.522176E-02  -0.509582E-02
  -0.493948E-02  -0.477890E-02  -0.463568E-02  -0.452264E-02  -0.444577E-02
  -0.440251E-02  -0.438757E-02  -0.439224E-02  -0.440685E-02  -0.442012E-02
  -0.441437E-02  -0.437045E-02  -0.427424E-02  -0.411867E-02  -0.390566E-02
  -0.365063E-02  -0.338107E-02  -0.312393E-02  -0.290140E-02  -0.272158E-02
  -0.257644E-02  -0.245229E-02  -0.233578E-02  -0.222614E-02  -0.213241E-02
  -0.206654E-02  -0.203810E-02  -0.205252E-02  -0.210593E-02  -0.218528E-02
  -0.227441E-02  -0.235800E-02  -0.242691E-02  -0.247813E-02  -0.251577E-02
  -0.254611E-02  -0.257659E-02  -0.260837E-02  -0.263595E-02  -0.265525E-02
  -0.265292E-02  -0.262794E-02  -0.257920E-02  -0.251067E-02  -0.242706E-02
  -0.233435E-02  -0.223841E-02  -0.214136E-02  -0.204099E-02  -0.193331E-02
  -0.181404E-02  -0.167994E-02  -0.152775E-02  -0.135037E-02  -0.113993E-02
  -0.891332E-03  -0.604673E-03  -0.297709E-03  -0.440370E-05   0.240319E-03
   0.409615E-03   0.487846E-03   0.462300E-03   0.319089E-03   0.538243E-04
  -0.325351E-03  -0.783416E-03  -0.126038E-02  -0.169645E-02  -0.204374E-02
  -0.227395E-02  -0.237790E-02  -0.236400E-02  -0.225231E-02  -0.207171E-02
  -0.185145E-02  -0.162470E-02  -0.142283E-02  -0.126885E-02  -0.117471E-02
  -0.113913E-02  -0.113397E-02  -0.110236E-02  -0.982983E-03  -0.728707E-03
  -0.320785E-03   0.221270E-03   0.848776E-03   0.150398E-02   0.213318E-02
   0.269738E-02   0.317677E-02   0.356899E-02   0.388643E-02   0.414501E-02
   0.435495E-02   0.451808E-02   0.463409E-02   0.469555E-02   0.468945E-02
   0.460575E-02   0.444106E-02   0.419933E-02   0.389211E-02   0.353640E-02
   0.315258E-02   0.276288E-02   0.238437E-02   0.203000E-02   0.171288E-02
   0.144787E-02   0.124445E-02   0.110531E-02   0.102632E-02   0.100036E-02
   0.101740E-02   0.106789E-02   0.114186E-02   0.123650E-02   0.135793E-02
   0.151496E-02   0.171544E-02   0.196346E-02   0.226497E-02   0.262962E-02
   0.306102E-02   0.355251E-02   0.408452E-02   0.463113E-02   0.516740E-02
   0.567050E-02   0.610851E-02   0.643930E-02   0.663328E-02   0.667729E-02
   0.657788E-02   0.635336E-02   0.602538E-02   0.561523E-02   0.514161E-02
   0.461603E-02   0.404473E-02   0.343098E-02   0.277698E-02   0.208435E-02
   0.135471E-02   0.592806E-03  -0.187928E-03  -0.961651E-03  -0.169781E-02
  -0.237041E-02  -0.294912E-02  -0.340209E-02  -0.370890E-02  -0.386550E-02
  -0.388256E-02  -0.377994E-02  -0.358408E-02  -0.332296E-02  -0.302232E-02
  -0.270916E-02  -0.240475E-02  -0.212538E-02  -0.187899E-02  -0.166646E-02
  -0.148204E-02  -0.131495E-02  -0.115399E-02  -0.987995E-03  -0.810293E-03
  -0.616502E-03  -0.409828E-03  -0.197454E-03   0.114037E-04   0.211559E-03
   0.414323E-03   0.638159E-03   0.883164E-03   0.112637E-02   0.133066E-02
   0.145056E-02   0.144644E-02   0.129642E-02   0.999387E-03   0.571455E-03
   0.314658E-04  -0.602703E-03  -0.130772E-02  -0.203785E-02  -0.273119E-02
  -0.332963E-02  -0.378614E-02  -0.407297E-02  -0.418360E-02  -0.412690E-02
  -0.392214E-02  -0.359887E-02  -0.319159E-02  -0.274026E-02  -0.228117E-02
  -0.184247E-02  -0.143985E-02  -0.107699E-02  -0.745639E-03  -0.433151E-03
  -0.125420E-03   0.190514E-03   0.522737E-03   0.877745E-03   0.126051E-02
   0.166935E-02   0.209096E-02   0.250823E-02   0.290094E-02   0.324984E-02
   0.353923E-02   0.375988E-02   0.391244E-02   0.400361E-02   0.404563E-02
   0.405222E-02   0.403845E-02   0.401454E-02   0.398590E-02   0.395321E-02
   0.391491E-02   0.386601E-02   0.379836E-02   0.370211E-02   0.356982E-02
   0.339822E-02   0.318628E-02   0.293666E-02   0.265310E-02   0.233966E-02
   0.200148E-02   0.164212E-02   0.126344E-02   0.869613E-03   0.471395E-03
   0.842996E-04  -0.278590E-03  -0.606269E-03  -0.882139E-03  -0.108169E-02
  -0.118723E-02  -0.118378E-02  -0.106363E-02  -0.828090E-03  -0.494179E-03
  -0.982631E-04   0.316045E-03   0.707933E-03   0.104325E-02   0.129634E-02
   0.145491E-02   0.151910E-02   0.149514E-02   0.138576E-02   0.119476E-02
   0.929403E-03   0.606248E-03   0.254461E-03  -0.976241E-04  -0.421638E-03
  -0.698929E-03  -0.918510E-03  -0.108119E-02  -0.119286E-02  -0.126408E-02
  -0.130508E-02  -0.132567E-02  -0.133477E-02  -0.133850E-02  -0.133586E-02
  -0.131928E-02  -0.127913E-02  -0.120612E-02  -0.109287E-02  -0.932369E-03
  -0.722593E-03  -0.466047E-03  -0.169627E-03   0.158417E-03   0.509747E-03
   0.876898E-03   0.125449E-02   0.164058E-02   0.203479E-02   0.243792E-02
   0.284881E-02   0.326290E-02   0.367475E-02   0.407496E-02   0.444830E-02
   0.477605E-02   0.504429E-02   0.524585E-02   0.537439E-02   0.542480E-02
   0.539641E-02   0.529644E-02   0.514162E-02   0.495342E-02   0.475290E-02
   0.455281E-02   0.435239E-02   0.414307E-02   0.391306E-02   0.365254E-02
   0.335716E-02   0.302753E-02   0.266865E-02   0.228790E-02   0.188930E-02
   0.147109E-02   0.102933E-02   0.564031E-03   0.855761E-04  -0.384567E-03
  -0.825132E-03  -0.121795E-02  -0.154156E-02  -0.177026E-02  -0.188605E-02
  -0.188406E-02  -0.177135E-02  -0.156444E-02  -0.128601E-02  -0.961035E-03
  -0.615377E-03  -0.274933E-03   0.383524E-04   0.286650E-03   0.415118E-03
   0.380995E-03   0.175107E-03  -0.181634E-03  -0.650573E-03  -0.118477E-02
  -0.174069E-02  -0.228434E-02  -0.279428E-02  -0.326882E-02  -0.372395E-02
  -0.417429E-02  -0.462013E-02  -0.505064E-02  -0.545364E-02  -0.581578E-02
  -0.612268E-02  -0.635624E-02  -0.650231E-02  -0.655589E-02  -0.651955E-02
  -0.640222E-02  -0.621732E-02  -0.598058E-02  -0.570864E-02  -0.541268E-02
  -0.509670E-02  -0.476285E-02  -0.441034E-02  -0.403897E-02  -0.365020E-02
  -0.324934E-02  -0.284424E-02  -0.244329E-02  -0.205190E-02  -0.166785E-02
  -0.128240E-02  -0.885651E-03  -0.468454E-03  -0.262923E-04   0.443389E-03
   0.938333E-03   0.145308E-02   0.197980E-02   0.250076E-02   0.298712E-02
   0.339216E-02   0.366013E-02   0.374832E-02   0.363625E-02   0.332621E-02
   0.284317E-02   0.222379E-02   0.150998E-02   0.736653E-03  -0.691751E-04
  -0.888849E-03  -0.170629E-02  -0.249467E-02  -0.321803E-02  -0.384643E-02
  -0.436193E-02  -0.476225E-02  -0.505288E-02  -0.524626E-02  -0.535988E-02
  -0.541347E-02  -0.542729E-02  -0.541803E-02  -0.538879E-02  -0.532816E-02
  -0.522145E-02  -0.505600E-02  -0.482596E-02  -0.453047E-02  -0.417259E-02
  -0.376011E-02  -0.330381E-02  -0.281580E-02  -0.230899E-02  -0.179356E-02
  -0.127734E-02  -0.765463E-03  -0.260374E-03   0.238808E-03   0.731259E-03
   0.120370E-02   0.162896E-02   0.197999E-02   0.223831E-02   0.239830E-02
   0.246430E-02   0.245093E-02   0.237731E-02   0.226426E-02   0.211937E-02
   0.192401E-02   0.164228E-02   0.125355E-02   0.762922E-03   0.191689E-03
  -0.430728E-03  -0.107530E-02  -0.172007E-02  -0.234921E-02  -0.295065E-02
  -0.350595E-02  -0.398932E-02  -0.438082E-02  -0.467040E-02  -0.485207E-02
  -0.492360E-02  -0.488869E-02  -0.475887E-02  -0.454730E-02  -0.426327E-02
  -0.391488E-02  -0.351005E-02  -0.306288E-02  -0.259404E-02  -0.212541E-02
  -0.167635E-02  -0.126553E-02  -0.917566E-03  -0.653355E-03  -0.489383E-03
  -0.435252E-03  -0.493246E-03  -0.656353E-03  -0.913612E-03  -0.125537E-02
  -0.166882E-02  -0.214036E-02  -0.265005E-02  -0.317454E-02  -0.368884E-02
  -0.417360E-02  -0.461683E-02  -0.501187E-02  -0.535013E-02  -0.561850E-02
  -0.581061E-02  -0.592552E-02  -0.596725E-02  -0.594011E-02  -0.584642E-02
  -0.569027E-02  -0.547880E-02  -0.522054E-02  -0.492202E-02  -0.458489E-02
  -0.421052E-02  -0.380196E-02  -0.336265E-02  -0.289940E-02  -0.241897E-02
  -0.192908E-02  -0.143682E-02  -0.954782E-03  -0.497221E-03  -0.759941E-04
   0.302483E-03   0.639790E-03   0.944700E-03   0.123277E-02   0.151879E-02
   0.181508E-02   0.211097E-02   0.237571E-02   0.257572E-02   0.268426E-02
   0.268941E-02   0.259594E-02   0.242039E-02   0.218668E-02   0.192068E-02
   0.164570E-02   0.138040E-02   0.113754E-02   0.924925E-03   0.744663E-03
   0.593201E-03   0.463466E-03   0.346564E-03   0.221325E-03   0.548193E-04
  -0.183212E-03  -0.504970E-03  -0.906127E-03  -0.136172E-02  -0.182913E-02
  -0.225588E-02  -0.259596E-02  -0.281375E-02  -0.288268E-02  -0.279348E-02
  -0.255446E-02  -0.218908E-02  -0.173154E-02  -0.121958E-02  -0.687554E-03
  -0.161308E-03   0.339735E-03   0.805440E-03   0.123306E-02   0.162685E-02
   0.199381E-02   0.234242E-02   0.268051E-02   0.301364E-02   0.334594E-02
   0.367954E-02   0.401305E-02   0.434519E-02   0.467297E-02   0.499333E-02
   0.530314E-02   0.559426E-02   0.586138E-02   0.610020E-02   0.631016E-02
   0.649433E-02   0.665602E-02   0.680032E-02   0.693209E-02   0.705004E-02
   0.714104E-02   0.718420E-02   0.716062E-02   0.705562E-02   0.685815E-02
   0.656431E-02   0.617828E-02   0.571214E-02   0.518187E-02   0.460459E-02
   0.399600E-02   0.337100E-02   0.274199E-02   0.212412E-02   0.153077E-02
   0.971690E-03   0.450451E-03  -0.329276E-04  -0.483345E-03  -0.907010E-03
  -0.131312E-02  -0.170862E-02  -0.209701E-02  -0.246982E-02  -0.281007E-02
  -0.309890E-02  -0.332470E-02  -0.348191E-02  -0.356290E-02  -0.355470E-02
  -0.344625E-02  -0.323454E-02  -0.292560E-02  -0.253334E-02  -0.208125E-02
  -0.159815E-02  -0.111268E-02  -0.647227E-03  -0.216929E-03   0.174417E-03
   0.530797E-03   0.861214E-03   0.117839E-02   0.149310E-02   0.181510E-02
   0.215406E-02   0.252053E-02   0.292108E-02   0.335759E-02   0.382548E-02
   0.431494E-02   0.481209E-02   0.530582E-02   0.578053E-02   0.621968E-02
   0.658810E-02   0.683127E-02   0.689941E-02   0.676608E-02   0.643394E-02
   0.592856E-02   0.528843E-02   0.455670E-02   0.377459E-02   0.297989E-02
   0.220532E-02   0.147497E-02   0.801064E-03   0.186745E-03  -0.374812E-03
  -0.893914E-03  -0.137843E-02  -0.181387E-02  -0.216814E-02  -0.240855E-02
  -0.251760E-02  -0.249479E-02  -0.235781E-02  -0.213415E-02  -0.185578E-02
  -0.155283E-02  -0.124987E-02  -0.961865E-03  -0.695397E-03  -0.451080E-03
  -0.222611E-03  -0.508326E-06   0.229442E-03   0.479901E-03   0.759139E-03
   0.106549E-02   0.138685E-02   0.170314E-02   0.199596E-02   0.224931E-02
   0.245125E-02   0.259686E-02   0.268728E-02   0.272901E-02   0.272905E-02
   0.269487E-02   0.263404E-02   0.254923E-02   0.243791E-02   0.229583E-02
   0.211874E-02   0.190623E-02   0.165975E-02   0.138295E-02   0.107905E-02
   0.752775E-03   0.404418E-03   0.285572E-04  -0.382410E-03  -0.835607E-03
  -0.133340E-02  -0.187421E-02  -0.245266E-02  -0.305616E-02  -0.365992E-02
  -0.422864E-02  -0.473118E-02  -0.513676E-02  -0.541926E-02  -0.556586E-02
  -0.557859E-02  -0.547026E-02  -0.525097E-02  -0.492801E-02  -0.451527E-02
  -0.403874E-02  -0.352850E-02  -0.301160E-02  -0.250808E-02  -0.202797E-02
  -0.157161E-02  -0.113365E-02  -0.705855E-03  -0.287405E-03   0.113687E-03
   0.487954E-03   0.826464E-03   0.111943E-02   0.135431E-02   0.151972E-02
   0.160870E-02   0.161912E-02   0.155378E-02   0.142035E-02   0.123059E-02
   0.996348E-03   0.728149E-03   0.435057E-03   0.119816E-03  -0.213842E-03
  -0.564351E-03  -0.921981E-03  -0.127012E-02  -0.159195E-02  -0.186713E-02
  -0.207323E-02  -0.219155E-02  -0.221228E-02  -0.212995E-02  -0.194550E-02
  -0.166768E-02  -0.131228E-02  -0.899845E-03  -0.454550E-03   0.122686E-05
   0.449955E-03   0.878057E-03   0.127464E-02   0.162833E-02   0.193443E-02
   0.219259E-02   0.240695E-02   0.257445E-02   0.268323E-02   0.272263E-02
   0.268665E-02   0.257584E-02   0.239501E-02   0.215180E-02   0.185697E-02
   0.152255E-02   0.115752E-02   0.764272E-03   0.341381E-03  -0.112725E-03
  -0.592372E-03  -0.108414E-02  -0.157324E-02  -0.204620E-02  -0.249071E-02
  -0.288907E-02  -0.321922E-02  -0.346652E-02  -0.362434E-02  -0.369655E-02
  -0.369233E-02  -0.362351E-02  -0.350440E-02  -0.334896E-02  -0.317127E-02
  -0.298350E-02  -0.279597E-02  -0.261545E-02  -0.244519E-02  -0.228441E-02
  -0.212130E-02  -0.192964E-02  -0.168289E-02  -0.136068E-02  -0.952847E-03
  -0.463546E-03   0.920660E-04   0.689372E-03   0.130416E-02   0.191396E-02
   0.250519E-02   0.307553E-02   0.363185E-02   0.418495E-02   0.474540E-02
   0.531130E-02   0.586764E-02   0.639554E-02   0.686955E-02   0.725817E-02
   0.753262E-02   0.767585E-02   0.768667E-02   0.757652E-02   0.736764E-02
   0.708840E-02   0.676020E-02   0.639276E-02   0.598661E-02   0.553860E-02
   0.504589E-02   0.450816E-02   0.392985E-02   0.331733E-02   0.268189E-02
   0.203459E-02   0.138838E-02   0.755410E-03   0.142512E-03  -0.451295E-03
  -0.104434E-02  -0.166260E-02  -0.232072E-02  -0.300227E-02  -0.366721E-02
  -0.427312E-02  -0.478475E-02  -0.518256E-02  -0.546200E-02  -0.563164E-02
  -0.570996E-02  -0.572153E-02  -0.569250E-02  -0.564576E-02  -0.559995E-02
  -0.556622E-02  -0.554962E-02  -0.554449E-02  -0.553812E-02  -0.551681E-02
  -0.546777E-02  -0.538559E-02  -0.526863E-02  -0.512214E-02  -0.495295E-02
  -0.476994E-02  -0.458176E-02  -0.439128E-02  -0.419572E-02  -0.398925E-02
  -0.376603E-02  -0.352147E-02  -0.325624E-02  -0.297407E-02  -0.268190E-02
  -0.238758E-02  -0.209679E-02  -0.181521E-02  -0.154473E-02  -0.128734E-02
  -0.104166E-02  -0.805630E-03  -0.573999E-03  -0.338248E-03  -0.873321E-04
   0.187171E-03   0.490425E-03   0.822601E-03   0.116902E-02   0.150494E-02
   0.180363E-02   0.204046E-02   0.218950E-02   0.223044E-02   0.215387E-02
   0.196219E-02   0.166428E-02   0.127361E-02   0.807982E-03   0.293645E-03
  -0.233354E-03  -0.735844E-03  -0.118434E-02  -0.156021E-02  -0.184872E-02
  -0.203299E-02  -0.210233E-02  -0.205725E-02  -0.190673E-02  -0.166633E-02
  -0.135257E-02  -0.982749E-03  -0.576008E-03  -0.155706E-03   0.252128E-03
   0.627529E-03   0.957714E-03   0.124026E-02   0.148775E-02   0.172318E-02
   0.197105E-02   0.224885E-02   0.255019E-02   0.283486E-02   0.304479E-02
   0.312892E-02   0.305482E-02   0.281224E-02   0.241512E-02   0.189599E-02
   0.130528E-02   0.700114E-03   0.129753E-03  -0.371751E-03  -0.788519E-03
  -0.112085E-02  -0.137536E-02  -0.155405E-02  -0.165281E-02  -0.166945E-02
  -0.160652E-02  -0.147043E-02  -0.127157E-02  -0.102147E-02  -0.734309E-03
  -0.422649E-03  -0.976519E-04   0.232595E-03   0.563194E-03   0.890822E-03
   0.120963E-02   0.150945E-02   0.177884E-02   0.201064E-02   0.220315E-02
   0.236475E-02   0.250999E-02   0.265568E-02   0.281585E-02   0.299730E-02
   0.319734E-02   0.340500E-02   0.360677E-02   0.379130E-02   0.395073E-02
   0.408306E-02   0.419389E-02   0.429183E-02   0.438668E-02   0.448685E-02
   0.459858E-02   0.472276E-02   0.485641E-02   0.499414E-02   0.513027E-02
   0.526176E-02   0.539037E-02   0.552039E-02   0.565590E-02   0.579472E-02
   0.592325E-02   0.602314E-02   0.607736E-02   0.607243E-02   0.599015E-02
   0.581084E-02   0.552167E-02   0.512182E-02   0.462154E-02   0.403880E-02
   0.339653E-02   0.271986E-02   0.204142E-02   0.140465E-02   0.847226E-03
   0.394418E-03   0.562204E-04  -0.162695E-03  -0.260773E-03  -0.243190E-03
  -0.123592E-03   0.758792E-04   0.326382E-03   0.599755E-03   0.871002E-03
   0.112332E-02   0.134361E-02   0.152294E-02   0.165777E-02   0.175136E-02
   0.181176E-02   0.185500E-02   0.190344E-02   0.197532E-02   0.208023E-02
   0.221686E-02   0.237750E-02   0.255040E-02   0.272399E-02   0.288927E-02
   0.303969E-02   0.317120E-02   0.328125E-02   0.336730E-02   0.343164E-02
   0.347593E-02   0.350497E-02   0.352276E-02   0.352913E-02   0.351611E-02
   0.346820E-02   0.337362E-02   0.322470E-02   0.302321E-02   0.277844E-02
   0.250246E-02   0.221005E-02   0.191313E-02   0.162193E-02   0.134096E-02
   0.106971E-02   0.803490E-03   0.537755E-03   0.266334E-03  -0.140916E-04
  -0.305284E-03  -0.605517E-03  -0.913175E-03  -0.122411E-02  -0.153545E-02
  -0.183854E-02  -0.212135E-02  -0.237143E-02  -0.258004E-02  -0.274486E-02
  -0.286735E-02  -0.295238E-02  -0.299577E-02  -0.298897E-02  -0.292279E-02
  -0.279342E-02  -0.260271E-02  -0.235747E-02  -0.206829E-02  -0.174766E-02
  -0.140799E-02  -0.106044E-02  -0.715676E-03  -0.384864E-03  -0.746379E-04
   0.210495E-03   0.468566E-03   0.695516E-03   0.890544E-03   0.105419E-02
   0.118397E-02   0.127209E-02   0.131052E-02   0.129466E-02   0.122508E-02
   0.110771E-02   0.951862E-03   0.769771E-03   0.573632E-03   0.383897E-03
   0.221698E-03   0.105007E-03   0.444705E-04   0.417157E-04   0.922223E-04
   0.185831E-03   0.308945E-03   0.448549E-03   0.592856E-03   0.732119E-03
   0.861661E-03   0.980231E-03   0.109027E-02   0.119466E-02   0.129839E-02
   0.140445E-02   0.151545E-02   0.163222E-02   0.175396E-02   0.187863E-02
   0.200320E-02   0.212607E-02   0.224615E-02   0.236259E-02   0.247711E-02
   0.258100E-02   0.269885E-02   0.282688E-02   0.296844E-02   0.311063E-02
   0.321346E-02   0.322769E-02   0.311303E-02   0.284958E-02   0.244206E-02
   0.191147E-02   0.128981E-02   0.601005E-03  -0.143531E-03  -0.937113E-03
  -0.176511E-02  -0.259779E-02  -0.340314E-02  -0.415445E-02  -0.483286E-02
  -0.542383E-02  -0.591459E-02  -0.630149E-02  -0.658170E-02  -0.674954E-02
  -0.679763E-02  -0.672739E-02  -0.654872E-02  -0.628442E-02  -0.596221E-02
  -0.561117E-02  -0.525563E-02  -0.491296E-02  -0.458967E-02  -0.428462E-02
  -0.399075E-02  -0.370482E-02  -0.342701E-02  -0.316021E-02  -0.290677E-02
  -0.266928E-02  -0.244725E-02  -0.224033E-02  -0.204636E-02  -0.186370E-02
  -0.170571E-02  -0.160774E-02  -0.161223E-02  -0.174178E-02  -0.198568E-02
  -0.231306E-02  -0.268381E-02  -0.305914E-02  -0.341205E-02  -0.373428E-02
  -0.402430E-02  -0.427799E-02  -0.448911E-02  -0.465401E-02  -0.476707E-02
  -0.482111E-02  -0.481035E-02  -0.473422E-02  -0.459783E-02  -0.441022E-02
  -0.418273E-02  -0.392297E-02  -0.363248E-02  -0.331086E-02  -0.295829E-02
  -0.257495E-02  -0.216024E-02  -0.171416E-02  -0.123818E-02  -0.736175E-03
  -0.215240E-03   0.315840E-03   0.844645E-03   0.134438E-02   0.177859E-02
   0.211444E-02   0.232634E-02   0.239849E-02   0.232984E-02   0.213522E-02
   0.183778E-02   0.146685E-02   0.104154E-02   0.562160E-03   0.175129E-04
  -0.591943E-03  -0.125016E-02  -0.193422E-02  -0.262021E-02  -0.328166E-02
  -0.389235E-02  -0.443463E-02  -0.489904E-02  -0.528184E-02  -0.557823E-02
  -0.578554E-02  -0.590519E-02  -0.594088E-02  -0.589255E-02  -0.576224E-02
  -0.555172E-02  -0.525858E-02  -0.487715E-02  -0.440749E-02  -0.385658E-02
  -0.323939E-02  -0.257555E-02  -0.189137E-02  -0.121761E-02  -0.582295E-03
  -0.557290E-05   0.500438E-03   0.931611E-03   0.129255E-02   0.159815E-02
   0.187004E-02   0.213124E-02   0.239924E-02   0.267619E-02   0.295397E-02
   0.321966E-02   0.345984E-02   0.365889E-02   0.379698E-02   0.385962E-02
   0.384006E-02   0.373795E-02   0.355598E-02   0.330349E-02   0.298723E-02
   0.260970E-02   0.217199E-02   0.168064E-02   0.115042E-02   0.599255E-03
   0.445952E-04  -0.506300E-03  -0.105892E-02  -0.162391E-02  -0.220436E-02
  -0.278169E-02  -0.332121E-02  -0.378865E-02  -0.415504E-02  -0.439853E-02
  -0.450877E-02  -0.449001E-02  -0.435899E-02  -0.413895E-02  -0.384816E-02
  -0.347062E-02  -0.296696E-02  -0.232711E-02  -0.157855E-02  -0.767038E-03
   0.572788E-04   0.846629E-03   0.156149E-02   0.217833E-02   0.269038E-02
   0.310402E-02   0.343490E-02   0.370449E-02   0.393666E-02   0.415562E-02
   0.438096E-02   0.462494E-02   0.488776E-02   0.515802E-02   0.542021E-02
   0.565923E-02   0.584979E-02   0.595734E-02   0.595033E-02   0.581154E-02
   0.554065E-02   0.515263E-02   0.467183E-02   0.412302E-02   0.352229E-02
   0.288166E-02   0.221044E-02   0.153177E-02   0.881162E-03   0.293049E-03
  -0.209095E-03  -0.615896E-03  -0.932518E-03  -0.117610E-02  -0.136947E-02
  -0.153255E-02  -0.167183E-02  -0.178510E-02  -0.186361E-02  -0.190192E-02
  -0.189599E-02  -0.184762E-02  -0.176465E-02  -0.165771E-02  -0.153898E-02
  -0.141914E-02  -0.130727E-02  -0.121206E-02  -0.114502E-02  -0.111230E-02
  -0.111799E-02  -0.116211E-02  -0.124402E-02  -0.136098E-02  -0.150713E-02
  -0.167623E-02  -0.186147E-02  -0.205572E-02  -0.225321E-02  -0.244868E-02
  -0.263876E-02  -0.282211E-02  -0.299791E-02  -0.316511E-02  -0.331837E-02
  -0.345206E-02  -0.356121E-02  -0.364359E-02  -0.369980E-02  -0.372779E-02
  -0.372108E-02  -0.367360E-02  -0.358213E-02  -0.344740E-02  -0.327347E-02
  -0.306864E-02  -0.284711E-02  -0.263050E-02  -0.243784E-02  -0.228240E-02
  -0.217157E-02  -0.210349E-02  -0.207190E-02  -0.206444E-02  -0.206698E-02
  -0.206715E-02  -0.205536E-02  -0.202747E-02  -0.198246E-02  -0.192636E-02
  -0.187217E-02  -0.183254E-02  -0.181721E-02  -0.182615E-02  -0.185085E-02
  -0.187871E-02  -0.189770E-02  -0.190116E-02  -0.189149E-02  -0.187790E-02
  -0.187191E-02  -0.187708E-02  -0.188384E-02  -0.187576E-02  -0.183603E-02
  -0.175222E-02  -0.161797E-02  -0.143264E-02  -0.120125E-02  -0.932587E-03
  -0.637528E-03  -0.329575E-03  -0.235185E-04   0.263825E-03   0.520120E-03
   0.741162E-03   0.932081E-03   0.110333E-02   0.126704E-02   0.143405E-02
   0.160977E-02   0.178812E-02   0.195770E-02   0.210491E-02   0.222089E-02
   0.232066E-02   0.244452E-02   0.262518E-02   0.285523E-02   0.309267E-02
   0.328308E-02   0.337705E-02   0.334193E-02   0.316442E-02   0.285959E-02
   0.246623E-02   0.203072E-02   0.159609E-02   0.118544E-02   0.791301E-03
   0.390306E-03  -0.301575E-04  -0.466254E-03  -0.905084E-03  -0.132250E-02
  -0.168417E-02  -0.195536E-02  -0.211093E-02  -0.213862E-02  -0.203358E-02
  -0.179617E-02  -0.143933E-02  -0.100810E-02  -0.583947E-03  -0.252456E-03
  -0.743267E-04  -0.658488E-04  -0.202810E-03  -0.437648E-03  -0.714962E-03
  -0.983430E-03  -0.120424E-02  -0.135574E-02  -0.143096E-02  -0.143568E-02
  -0.138415E-02  -0.129509E-02  -0.118752E-02  -0.107759E-02  -0.976642E-03
  -0.892148E-03  -0.824265E-03  -0.772812E-03  -0.733001E-03  -0.699520E-03
  -0.668579E-03  -0.635196E-03  -0.597426E-03  -0.553750E-03  -0.505347E-03
  -0.452544E-03  -0.397993E-03  -0.338738E-03  -0.269276E-03  -0.185316E-03
  -0.868235E-04   0.228491E-04   0.137565E-03   0.243312E-03   0.321633E-03
   0.355831E-03   0.336986E-03   0.268197E-03   0.164120E-03   0.442810E-04
  -0.723859E-04  -0.170776E-03  -0.244183E-03  -0.293711E-03  -0.326166E-03
  -0.352083E-03  -0.380370E-03  -0.424709E-03  -0.501713E-03  -0.626375E-03
  -0.807349E-03  -0.103329E-02  -0.128107E-02  -0.152201E-02  -0.172151E-02
  -0.184523E-02  -0.186775E-02  -0.177979E-02  -0.158397E-02  -0.129616E-02
  -0.935693E-03  -0.512406E-03  -0.278865E-04   0.514172E-03   0.108755E-02
   0.164710E-02   0.214769E-02   0.255560E-02   0.285559E-02   0.305054E-02
   0.315761E-02   0.320404E-02   0.321856E-02   0.323573E-02   0.328777E-02
   0.338595E-02   0.352025E-02   0.366818E-02   0.380481E-02   0.390995E-02
   0.397413E-02   0.400110E-02   0.400169E-02   0.399136E-02   0.398331E-02
   0.398772E-02   0.401005E-02   0.405031E-02   0.410568E-02   0.417178E-02
   0.424145E-02   0.430895E-02   0.436842E-02   0.441502E-02   0.444693E-02
   0.446554E-02   0.447221E-02   0.447111E-02   0.446557E-02   0.445890E-02
   0.445314E-02   0.444955E-02   0.444781E-02   0.444775E-02   0.444746E-02
   0.444636E-02   0.444367E-02   0.443837E-02   0.443076E-02   0.442111E-02
   0.441005E-02   0.439915E-02   0.438912E-02   0.437990E-02   0.437153E-02
   0.435945E-02   0.433774E-02   0.430181E-02   0.424206E-02   0.414606E-02
   0.399981E-02   0.379507E-02   0.353304E-02   0.322820E-02   0.290405E-02
   0.258475E-02   0.228994E-02   0.203293E-02   0.181876E-02   0.164759E-02
   0.151944E-02   0.143000E-02   0.137081E-02   0.132703E-02   0.128071E-02
   0.121593E-02   0.112267E-02   0.100129E-02   0.862495E-03   0.720869E-03
   0.590301E-03   0.481679E-03   0.400448E-03   0.349231E-03   0.328066E-03
   0.334315E-03   0.364759E-03   0.412822E-03   0.472527E-03   0.530288E-03
   0.569335E-03   0.581017E-03   0.566899E-03   0.534105E-03   0.493266E-03
   0.455198E-03   0.426936E-03   0.414520E-03   0.418679E-03   0.436545E-03
   0.460160E-03   0.477564E-03   0.480047E-03   0.461409E-03   0.426743E-03
   0.385054E-03   0.347617E-03   0.325176E-03   0.321971E-03   0.337310E-03
   0.367134E-03   0.405172E-03   0.445714E-03   0.489986E-03   0.546264E-03
   0.625643E-03   0.735414E-03   0.879999E-03   0.105658E-02   0.125665E-02
   0.146940E-02   0.168300E-02   0.188986E-02   0.208463E-02   0.227105E-02
   0.245229E-02   0.263531E-02   0.282514E-02   0.302380E-02   0.322858E-02
   0.343461E-02   0.363374E-02   0.381969E-02   0.398535E-02   0.412894E-02
   0.424793E-02   0.434127E-02   0.440937E-02   0.445391E-02   0.448058E-02
   0.449816E-02   0.451717E-02   0.454645E-02   0.458090E-02   0.460090E-02
   0.458555E-02   0.451657E-02   0.438559E-02   0.419042E-02   0.393751E-02
   0.363767E-02   0.330440E-02   0.295156E-02   0.259132E-02   0.223198E-02
   0.187281E-02   0.150450E-02   0.111496E-02   0.688808E-03   0.212910E-03
  -0.321512E-03  -0.920484E-03  -0.158807E-02  -0.232742E-02  -0.312466E-02
  -0.393531E-02  -0.469972E-02  -0.535982E-02  -0.587815E-02  -0.623846E-02
  -0.644840E-02  -0.653865E-02  -0.657290E-02  -0.661586E-02  -0.668579E-02
  -0.675531E-02  -0.677975E-02  -0.671351E-02  -0.652379E-02  -0.619665E-02
  -0.573808E-02  -0.516971E-02  -0.452300E-02  -0.383085E-02  -0.312082E-02
  -0.240948E-02  -0.170560E-02  -0.101103E-02  -0.324520E-03   0.335837E-03
   0.932712E-03   0.142992E-02   0.180066E-02   0.203218E-02   0.212299E-02
   0.208411E-02   0.193844E-02   0.171893E-02   0.146106E-02   0.119761E-02
   0.953067E-03   0.741677E-03   0.568273E-03   0.429744E-03   0.321025E-03
   0.236244E-03   0.169217E-03   0.115083E-03   0.596730E-04  -0.228355E-04
  -0.159881E-03  -0.373496E-03  -0.660483E-03  -0.993452E-03  -0.133183E-02
  -0.163672E-02  -0.187838E-02  -0.204124E-02  -0.212149E-02  -0.212534E-02
  -0.205735E-02  -0.192175E-02  -0.172588E-02  -0.147928E-02  -0.119661E-02
  -0.893405E-03  -0.582912E-03  -0.279795E-03  -0.641393E-06   0.237001E-03
   0.420933E-03   0.545819E-03   0.615366E-03   0.637278E-03   0.625687E-03
   0.593936E-03   0.553776E-03   0.514990E-03   0.482546E-03   0.459350E-03
   0.444624E-03   0.438015E-03   0.447568E-03   0.496748E-03   0.614635E-03
   0.820075E-03   0.110188E-02   0.142433E-02   0.174138E-02   0.201338E-02
   0.220306E-02   0.228059E-02   0.223015E-02   0.205176E-02   0.175917E-02
   0.137724E-02   0.935012E-03   0.465261E-03   0.422217E-05  -0.418830E-03
  -0.782629E-03  -0.107974E-02  -0.131258E-02  -0.149157E-02  -0.162985E-02
  -0.174083E-02  -0.183703E-02  -0.192297E-02  -0.199366E-02  -0.204062E-02
  -0.205513E-02  -0.203307E-02  -0.197410E-02  -0.188151E-02  -0.176221E-02
  -0.162331E-02  -0.146856E-02  -0.129345E-02  -0.109167E-02  -0.858253E-03
  -0.590001E-03  -0.287942E-03   0.429282E-04   0.385173E-03   0.710805E-03
   0.994503E-03   0.121929E-02   0.138595E-02   0.150689E-02   0.159958E-02
   0.167975E-02   0.175130E-02   0.180876E-02   0.184358E-02   0.184687E-02
   0.181479E-02   0.174903E-02   0.165972E-02   0.156010E-02   0.146231E-02
   0.137642E-02   0.130825E-02   0.126033E-02   0.123027E-02   0.120674E-02
   0.117104E-02   0.110532E-02   0.100096E-02   0.861341E-03   0.699649E-03
   0.530192E-03   0.367260E-03   0.221815E-03   0.100990E-03   0.735983E-05
  -0.580292E-04  -0.984463E-04  -0.118752E-03  -0.127064E-03  -0.135753E-03
  -0.155305E-03  -0.193171E-03  -0.253845E-03  -0.336927E-03  -0.439283E-03
  -0.555843E-03  -0.673910E-03  -0.777833E-03  -0.852446E-03  -0.888671E-03
  -0.887396E-03  -0.860431E-03  -0.823394E-03  -0.792127E-03  -0.778360E-03
  -0.789358E-03  -0.827042E-03  -0.886258E-03  -0.958891E-03  -0.103479E-02
  -0.110508E-02  -0.116459E-02  -0.120874E-02  -0.123582E-02  -0.124171E-02
  -0.122303E-02  -0.117812E-02  -0.110798E-02  -0.101575E-02  -0.905860E-03
  -0.787150E-03  -0.670323E-03  -0.566087E-03  -0.480308E-03  -0.408979E-03
  -0.331561E-03  -0.221783E-03  -0.571637E-04   0.157059E-03   0.387407E-03
   0.592832E-03   0.731908E-03   0.773210E-03   0.697102E-03   0.501723E-03
   0.201790E-03  -0.172451E-03  -0.584169E-03  -0.996882E-03  -0.137591E-02
  -0.169255E-02  -0.193061E-02  -0.208721E-02  -0.217265E-02  -0.220616E-02
  -0.221102E-02  -0.220810E-02  -0.221437E-02  -0.224333E-02  -0.230713E-02
  -0.241527E-02  -0.257338E-02  -0.277843E-02  -0.301630E-02  -0.326220E-02
  -0.349058E-02  -0.368157E-02  -0.382363E-02  -0.391386E-02  -0.395597E-02
  -0.396130E-02  -0.394102E-02  -0.390806E-02  -0.386837E-02  -0.382150E-02
  -0.376428E-02  -0.369202E-02  -0.360183E-02  -0.349605E-02  -0.338309E-02
  -0.327337E-02  -0.317663E-02  -0.309992E-02  -0.304733E-02  -0.301713E-02
  -0.300771E-02  -0.301254E-02  -0.302644E-02  -0.304417E-02  -0.306089E-02
  -0.307158E-02  -0.307176E-02  -0.305734E-02  -0.302722E-02  -0.298130E-02
  -0.292084E-02  -0.284559E-02  -0.275566E-02  -0.265113E-02  -0.253301E-02
  -0.240299E-02  -0.225953E-02  -0.210063E-02  -0.192357E-02  -0.172783E-02
  -0.151440E-02  -0.128900E-02  -0.105934E-02  -0.834955E-03  -0.622600E-03
  -0.426429E-03  -0.242504E-03  -0.584907E-04   0.143094E-03   0.376993E-03
   0.652279E-03   0.963594E-03   0.128710E-02   0.159000E-02   0.184196E-02
   0.202207E-02   0.212080E-02   0.213711E-02   0.207386E-02   0.193684E-02
   0.173537E-02   0.147987E-02   0.118132E-02   0.851511E-03   0.503384E-03
   0.152763E-03  -0.183594E-03  -0.492677E-03  -0.767432E-03  -0.100609E-02
  -0.120964E-02  -0.138417E-02  -0.153638E-02  -0.167275E-02  -0.180017E-02
  -0.192261E-02  -0.203819E-02  -0.213813E-02  -0.221266E-02  -0.225297E-02
  -0.225373E-02  -0.221269E-02  -0.213234E-02  -0.201841E-02  -0.187855E-02
  -0.172188E-02  -0.155628E-02  -0.138844E-02  -0.122291E-02  -0.106067E-02
  -0.902197E-03  -0.739485E-03  -0.561887E-03  -0.358549E-03  -0.122726E-03
   0.147262E-03   0.444202E-03   0.738955E-03   0.987191E-03   0.114853E-02
   0.120489E-02   0.116461E-02   0.105291E-02   0.900763E-03   0.738252E-03
   0.587507E-03   0.462882E-03   0.369406E-03   0.305351E-03   0.264085E-03
   0.242863E-03   0.243626E-03   0.270285E-03   0.325522E-03   0.408954E-03
   0.516702E-03   0.641219E-03   0.773635E-03   0.906060E-03   0.103427E-02
   0.115738E-02   0.127741E-02   0.139770E-02   0.152128E-02   0.165104E-02
   0.179126E-02   0.194657E-02   0.212058E-02   0.231476E-02   0.252274E-02
   0.272067E-02   0.287185E-02   0.294311E-02   0.291758E-02   0.279666E-02
   0.259511E-02   0.233589E-02   0.204421E-02   0.174361E-02   0.145272E-02
   0.118533E-02   0.954040E-03   0.768408E-03   0.632459E-03   0.544290E-03
   0.497086E-03   0.481733E-03   0.488883E-03   0.516577E-03   0.567815E-03
   0.648007E-03   0.761104E-03   0.907782E-03   0.108107E-02   0.126694E-02
   0.144510E-02   0.159282E-02   0.168865E-02   0.171817E-02   0.167711E-02
   0.156918E-02   0.140650E-02   0.120897E-02   0.100220E-02   0.813959E-03
   0.664680E-03   0.567357E-03   0.524118E-03   0.529942E-03   0.574029E-03
   0.642565E-03   0.721564E-03   0.789350E-03   0.816272E-03   0.776089E-03
   0.650773E-03   0.434951E-03   0.135983E-03  -0.224343E-03  -0.607852E-03
  -0.972787E-03  -0.128336E-02  -0.151685E-02  -0.166557E-02  -0.173438E-02
  -0.173892E-02  -0.169973E-02  -0.163928E-02  -0.157605E-02  -0.152412E-02
  -0.149083E-02  -0.147560E-02  -0.146923E-02  -0.145867E-02  -0.143144E-02
  -0.137875E-02  -0.129734E-02  -0.119042E-02  -0.106727E-02  -0.937830E-03
  -0.812102E-03  -0.696847E-03  -0.592824E-03  -0.490055E-03  -0.373537E-03
  -0.227342E-03  -0.407272E-04   0.189305E-03   0.456542E-03   0.746986E-03
   0.104433E-02   0.133421E-02   0.160600E-02   0.185295E-02   0.206511E-02
   0.222563E-02   0.231792E-02   0.233428E-02   0.227436E-02   0.214525E-02
   0.195271E-02   0.170053E-02   0.139365E-02   0.103940E-02   0.649717E-03
   0.243101E-03  -0.160346E-03  -0.543643E-03  -0.895731E-03  -0.121188E-02
  -0.149300E-02  -0.173521E-02  -0.192746E-02  -0.205861E-02  -0.212122E-02
  -0.211678E-02  -0.205834E-02  -0.196541E-02  -0.185941E-02  -0.175511E-02
  -0.165904E-02  -0.156968E-02  -0.148295E-02  -0.139256E-02  -0.129277E-02
  -0.118087E-02  -0.105456E-02  -0.915973E-03  -0.767820E-03  -0.613563E-03
  -0.457505E-03  -0.304666E-03  -0.160076E-03  -0.272480E-04   0.923509E-04
   0.196785E-03   0.284181E-03   0.353044E-03   0.400196E-03   0.418252E-03
   0.394139E-03   0.317432E-03   0.181896E-03  -0.181756E-04  -0.286413E-03
  -0.621392E-03  -0.101636E-02  -0.146126E-02  -0.194153E-02  -0.244294E-02
  -0.295036E-02  -0.345190E-02  -0.393590E-02  -0.438473E-02  -0.478147E-02
  -0.511337E-02  -0.537535E-02  -0.556003E-02  -0.565778E-02  -0.566310E-02
  -0.557823E-02  -0.541134E-02  -0.517551E-02  -0.488067E-02  -0.453569E-02
  -0.414822E-02  -0.373729E-02  -0.332971E-02  -0.295129E-02  -0.261293E-02
  -0.230438E-02  -0.200213E-02  -0.167966E-02  -0.131685E-02  -0.904356E-03
  -0.444104E-03   0.533687E-04   0.569920E-03   0.108107E-02   0.156513E-02
   0.200442E-02   0.238664E-02   0.269779E-02   0.292530E-02   0.306416E-02
   0.312118E-02   0.311379E-02   0.306346E-02   0.299294E-02   0.292065E-02
   0.286046E-02   0.281864E-02   0.279549E-02   0.278100E-02   0.276160E-02
   0.272228E-02   0.265393E-02   0.255064E-02   0.241270E-02   0.224539E-02
   0.205611E-02   0.185573E-02   0.166039E-02   0.148966E-02   0.135835E-02
   0.127717E-02   0.124622E-02   0.126227E-02   0.131953E-02   0.141576E-02
   0.154598E-02   0.170194E-02   0.187474E-02   0.205522E-02   0.223830E-02
   0.242675E-02   0.262957E-02   0.285710E-02   0.311614E-02   0.340118E-02
   0.369272E-02   0.396680E-02   0.420145E-02   0.438107E-02   0.449601E-02
   0.454513E-02   0.453493E-02   0.447657E-02   0.438143E-02   0.425718E-02
   0.410822E-02   0.393897E-02   0.375281E-02   0.355383E-02   0.335441E-02
   0.317199E-02   0.302213E-02   0.291545E-02   0.285660E-02   0.284247E-02
   0.286400E-02   0.288114E-02   0.284577E-02   0.273561E-02   0.254946E-02
   0.230450E-02   0.202368E-02   0.173283E-02   0.145465E-02   0.120454E-02
   0.991426E-03   0.810839E-03   0.649463E-03   0.489977E-03   0.317191E-03
   0.126261E-03  -0.740065E-04  -0.266503E-03  -0.431355E-03  -0.554617E-03
  -0.628519E-03  -0.652926E-03  -0.638964E-03  -0.603378E-03  -0.565575E-03
  -0.540853E-03  -0.536516E-03  -0.546026E-03  -0.553676E-03  -0.542176E-03
  -0.496304E-03  -0.407555E-03  -0.276159E-03  -0.110933E-03   0.755651E-04
   0.268018E-03   0.454442E-03   0.625975E-03   0.778424E-03   0.908622E-03
   0.101011E-02   0.107011E-02   0.107309E-02   0.100838E-02   0.871879E-03
   0.668284E-03   0.407491E-03   0.104804E-03  -0.222800E-03  -0.553522E-03
  -0.863749E-03  -0.113518E-02  -0.135698E-02  -0.152632E-02  -0.163968E-02
  -0.168998E-02  -0.167102E-02  -0.158167E-02  -0.142605E-02  -0.121649E-02
  -0.970753E-03  -0.711912E-03  -0.456954E-03  -0.210083E-03   0.388233E-04
   0.303484E-03   0.596483E-03   0.910128E-03   0.121342E-02   0.146737E-02
   0.163764E-02   0.170279E-02   0.165712E-02   0.150849E-02   0.127433E-02
   0.978420E-03   0.645003E-03   0.296732E-03  -0.497721E-04  -0.384149E-03
  -0.705656E-03  -0.102741E-02  -0.136911E-02  -0.175129E-02  -0.218686E-02
  -0.267847E-02  -0.319888E-02  -0.369081E-02  -0.409637E-02  -0.436999E-02
  -0.448707E-02  -0.444177E-02  -0.424773E-02  -0.393213E-02  -0.353032E-02
  -0.308203E-02  -0.263028E-02  -0.221357E-02  -0.185913E-02  -0.157998E-02
  -0.137557E-02  -0.123414E-02  -0.113571E-02  -0.105162E-02  -0.947969E-03
  -0.797145E-03  -0.582281E-03  -0.298225E-03   0.458080E-04   0.423526E-03
   0.795671E-03   0.112464E-02   0.138182E-02   0.153917E-02   0.156969E-02
   0.145890E-02   0.121055E-02   0.851393E-03   0.424214E-03  -0.239232E-04
  -0.453779E-03  -0.836166E-03  -0.116011E-02  -0.143827E-02  -0.171377E-02
  -0.201432E-02  -0.233413E-02  -0.265196E-02  -0.294089E-02  -0.317741E-02
  -0.334722E-02  -0.344401E-02  -0.347070E-02  -0.343074E-02  -0.332948E-02
  -0.317542E-02  -0.297812E-02  -0.274936E-02  -0.249958E-02  -0.223827E-02
  -0.197133E-02  -0.170359E-02  -0.143757E-02  -0.117222E-02  -0.905102E-03
  -0.632540E-03  -0.351975E-03  -0.616642E-04   0.232898E-03   0.517094E-03
   0.773387E-03   0.985635E-03   0.114259E-02   0.123676E-02   0.126651E-02
   0.123698E-02   0.115834E-02   0.104392E-02   0.908419E-03   0.768527E-03
   0.639171E-03   0.530923E-03   0.450095E-03   0.396604E-03   0.367203E-03
   0.357065E-03   0.362655E-03   0.384491E-03   0.422653E-03   0.477804E-03
   0.549201E-03   0.635640E-03   0.734817E-03   0.844126E-03   0.960279E-03
   0.108027E-02   0.120249E-02   0.132595E-02   0.145103E-02   0.157855E-02
   0.170930E-02   0.184265E-02   0.197350E-02   0.209429E-02   0.219702E-02
   0.227680E-02   0.233143E-02   0.236203E-02   0.237268E-02   0.236778E-02
   0.235015E-02   0.231496E-02   0.225314E-02   0.215606E-02   0.201480E-02
   0.182292E-02   0.157855E-02   0.128545E-02   0.953964E-03   0.596878E-03
   0.227439E-03  -0.143038E-03  -0.506328E-03  -0.858032E-03  -0.120107E-02
  -0.154241E-02  -0.188969E-02  -0.225077E-02  -0.262764E-02  -0.301540E-02
  -0.340450E-02  -0.378319E-02  -0.413327E-02  -0.443326E-02  -0.466531E-02
  -0.482043E-02  -0.489988E-02  -0.491233E-02  -0.487222E-02  -0.479317E-02
  -0.469019E-02  -0.457415E-02  -0.445416E-02  -0.433521E-02  -0.422061E-02
  -0.411512E-02  -0.402738E-02  -0.396359E-02  -0.392886E-02  -0.392383E-02
  -0.394567E-02  -0.398967E-02  -0.404943E-02  -0.411228E-02  -0.416175E-02
  -0.418103E-02  -0.415873E-02  -0.408894E-02  -0.397422E-02  -0.382153E-02
  -0.364456E-02  -0.345967E-02  -0.328151E-02  -0.312092E-02  -0.298332E-02
  -0.287000E-02  -0.277780E-02  -0.270125E-02  -0.263429E-02  -0.257227E-02
  -0.251324E-02  -0.245926E-02  -0.241159E-02  -0.237297E-02  -0.234426E-02
  -0.232564E-02  -0.231595E-02  -0.231065E-02  -0.230261E-02  -0.228636E-02
  -0.225781E-02  -0.221378E-02  -0.215552E-02  -0.208526E-02  -0.200623E-02
  -0.192279E-02  -0.183973E-02  -0.176614E-02  -0.171421E-02  -0.169329E-02
  -0.170944E-02  -0.176293E-02  -0.185002E-02  -0.196404E-02  -0.209284E-02
  -0.222250E-02  -0.234036E-02  -0.243769E-02  -0.250974E-02  -0.255618E-02
  -0.258055E-02  -0.258575E-02  -0.257471E-02  -0.254998E-02  -0.251375E-02
  -0.246843E-02  -0.241684E-02  -0.235995E-02  -0.229820E-02  -0.223230E-02
  -0.216224E-02  -0.208766E-02  -0.201211E-02  -0.194195E-02  -0.188584E-02
  -0.185272E-02  -0.184651E-02  -0.186134E-02  -0.187997E-02  -0.187691E-02
  -0.183211E-02  -0.173058E-02  -0.156671E-02  -0.134538E-02  -0.107995E-02
  -0.792155E-03  -0.503414E-03  -0.232366E-03   0.983388E-05   0.217376E-03
   0.393202E-03   0.539572E-03   0.659281E-03   0.752206E-03   0.818204E-03
   0.858439E-03   0.873447E-03   0.865220E-03   0.834245E-03   0.784994E-03
   0.720528E-03   0.645028E-03   0.561459E-03   0.473370E-03   0.382291E-03
   0.290872E-03   0.202490E-03   0.125410E-03   0.674317E-04   0.357500E-04
   0.342046E-04   0.636461E-04   0.124196E-03   0.211067E-03   0.319981E-03
   0.444740E-03   0.578614E-03   0.720385E-03   0.871465E-03   0.103533E-02
   0.121375E-02   0.140872E-02   0.161266E-02   0.181074E-02   0.198831E-02
   0.213130E-02   0.222614E-02   0.225920E-02   0.222460E-02   0.212255E-02
   0.196106E-02   0.175184E-02   0.151085E-02   0.125827E-02   0.102250E-02
   0.829903E-03   0.701658E-03   0.646348E-03   0.662637E-03   0.738396E-03
   0.851121E-03   0.978111E-03   0.109640E-02   0.119022E-02   0.125116E-02
   0.127808E-02   0.127509E-02   0.125103E-02   0.121535E-02   0.117657E-02
   0.114133E-02   0.111358E-02   0.109387E-02   0.108137E-02   0.107331E-02
   0.106684E-02   0.105950E-02   0.104917E-02   0.103588E-02   0.102577E-02
   0.103414E-02   0.107694E-02   0.116608E-02   0.130813E-02   0.150085E-02
   0.173444E-02   0.199126E-02   0.225111E-02   0.249757E-02   0.271850E-02
   0.290746E-02   0.306253E-02   0.318565E-02   0.328111E-02   0.335524E-02
   0.341665E-02   0.346962E-02   0.351617E-02   0.355324E-02   0.357719E-02
   0.358392E-02   0.357234E-02   0.354254E-02   0.349642E-02   0.343773E-02
   0.337017E-02   0.329725E-02   0.322175E-02   0.314559E-02   0.307028E-02
   0.299669E-02   0.292350E-02   0.285074E-02   0.277604E-02   0.269766E-02
   0.261549E-02   0.252857E-02   0.243674E-02   0.233542E-02   0.221339E-02
   0.206092E-02   0.187094E-02   0.164170E-02   0.137642E-02   0.108340E-02
   0.783396E-03   0.504759E-03   0.273180E-03   0.105944E-03   0.934042E-05
  -0.189033E-04   0.100999E-04   0.829345E-04   0.183906E-03   0.299928E-03
   0.418988E-03   0.534116E-03   0.641297E-03   0.738106E-03   0.824215E-03
   0.899211E-03   0.963798E-03   0.101989E-02   0.106942E-02   0.111380E-02
   0.114923E-02   0.116598E-02   0.115365E-02   0.110290E-02   0.101214E-02
   0.881195E-03   0.717035E-03   0.527687E-03   0.322876E-03   0.113222E-03
  -0.939834E-04  -0.294008E-03  -0.483767E-03  -0.663346E-03  -0.833456E-03
  -0.991883E-03  -0.113325E-02  -0.125254E-02  -0.134734E-02  -0.141714E-02
  -0.146336E-02  -0.148369E-02  -0.146918E-02  -0.141073E-02  -0.130180E-02
  -0.114176E-02  -0.934974E-03  -0.689112E-03  -0.419420E-03  -0.144595E-03
   0.116231E-03   0.349011E-03   0.546101E-03   0.706030E-03   0.831733E-03
   0.927744E-03   0.995981E-03   0.104023E-02   0.106400E-02   0.107146E-02
   0.106483E-02   0.104627E-02   0.101743E-02   0.979353E-03   0.934018E-03
   0.110394E-02   0.105062E-02   0.993979E-03   0.933815E-03   0.866831E-03
   0.790212E-03   0.700753E-03   0.597370E-03   0.480371E-03   0.351140E-03
   0.210104E-03   0.563463E-04  -0.112501E-03  -0.296338E-03  -0.495495E-03
  -0.707852E-03  -0.930862E-03  -0.115952E-02  -0.138341E-02  -0.158735E-02
  -0.175844E-02  -0.188882E-02  -0.197620E-02  -0.202671E-02  -0.205060E-02
  -0.206074E-02  -0.206911E-02  -0.208498E-02  -0.211378E-02  -0.215689E-02
  -0.221156E-02  -0.227137E-02  -0.233007E-02  -0.238090E-02  -0.242060E-02
  -0.244796E-02  -0.246401E-02  -0.247584E-02  -0.249331E-02  -0.252579E-02
  -0.258030E-02  -0.265940E-02  -0.276135E-02  -0.287238E-02  -0.296076E-02
  -0.299198E-02  -0.293645E-02  -0.277866E-02  -0.253069E-02  -0.222679E-02
  -0.190939E-02  -0.161793E-02  -0.138173E-02  -0.121623E-02  -0.112274E-02
  -0.109171E-02  -0.109832E-02  -0.110651E-02  -0.108340E-02  -0.100461E-02
  -0.862531E-03  -0.664420E-03  -0.426656E-03  -0.169699E-03   0.878854E-04
   0.330181E-03   0.547848E-03   0.731701E-03   0.875957E-03   0.979271E-03
   0.104380E-02   0.107548E-02   0.108295E-02   0.107431E-02   0.105767E-02
   0.103915E-02   0.102307E-02   0.101080E-02   0.100359E-02   0.100008E-02
   0.998834E-03   0.998706E-03   0.998038E-03   0.996129E-03   0.993058E-03
   0.988514E-03   0.984475E-03   0.981436E-03   0.981448E-03   0.987043E-03
   0.100090E-02   0.102459E-02   0.105858E-02   0.110465E-02   0.116943E-02
   0.126157E-02   0.138804E-02   0.155252E-02   0.175243E-02   0.198430E-02
   0.223892E-02   0.250761E-02   0.278182E-02   0.305438E-02   0.332087E-02
   0.357890E-02   0.382877E-02   0.407115E-02   0.430791E-02   0.453092E-02
   0.472466E-02   0.487366E-02   0.496657E-02   0.500031E-02   0.497621E-02
   0.489861E-02   0.477503E-02   0.461411E-02   0.442626E-02   0.422318E-02
   0.401412E-02   0.380709E-02   0.360524E-02   0.339731E-02   0.315765E-02
   0.286233E-02   0.251371E-02   0.215374E-02   0.184320E-02   0.162450E-02
   0.150548E-02   0.146802E-02   0.148126E-02   0.151553E-02   0.155148E-02
   0.158231E-02   0.160573E-02   0.162398E-02   0.164020E-02   0.165753E-02
   0.167970E-02   0.170877E-02   0.174670E-02   0.179619E-02   0.185839E-02
   0.193281E-02   0.201785E-02   0.210962E-02   0.219988E-02   0.227956E-02
   0.234124E-02   0.238005E-02   0.239461E-02   0.238606E-02   0.235220E-02
   0.228944E-02   0.219505E-02   0.206822E-02   0.191192E-02   0.172832E-02
   0.151961E-02   0.128877E-02   0.103937E-02   0.773575E-03   0.488785E-03
   0.178200E-03  -0.162432E-03  -0.529538E-03  -0.915339E-03  -0.130870E-02
  -0.169781E-02  -0.205869E-02  -0.235653E-02  -0.256178E-02  -0.265620E-02
  -0.263414E-02  -0.249986E-02  -0.226868E-02  -0.196163E-02  -0.160371E-02
  -0.122076E-02  -0.837092E-03  -0.472347E-03  -0.138936E-03   0.157995E-03
   0.416284E-03   0.634253E-03   0.810414E-03   0.946233E-03   0.104553E-02
   0.111456E-02   0.115999E-02   0.118989E-02   0.121748E-02   0.126151E-02
   0.133927E-02   0.145763E-02   0.160428E-02   0.175510E-02   0.188288E-02
   0.196602E-02   0.198787E-02   0.193666E-02   0.180968E-02   0.161280E-02
   0.136684E-02   0.110321E-02   0.853623E-03   0.642816E-03   0.485016E-03
   0.384872E-03   0.337321E-03   0.333657E-03   0.360251E-03   0.404486E-03
   0.454606E-03   0.501916E-03   0.541532E-03   0.571714E-03   0.594567E-03
   0.613334E-03   0.632378E-03   0.655114E-03   0.683397E-03   0.718248E-03
   0.758708E-03   0.803410E-03   0.848334E-03   0.889010E-03   0.920641E-03
   0.940604E-03   0.947680E-03   0.942953E-03   0.928501E-03   0.907027E-03
   0.882274E-03   0.859470E-03   0.845755E-03   0.846829E-03   0.866131E-03
   0.903927E-03   0.958661E-03   0.102583E-02   0.110188E-02   0.118359E-02
   0.126952E-02   0.135975E-02   0.145325E-02   0.155007E-02   0.164953E-02
   0.175054E-02   0.185051E-02   0.194085E-02   0.200920E-02   0.204519E-02
   0.204187E-02   0.199843E-02   0.191694E-02   0.180118E-02   0.165620E-02
   0.148799E-02   0.130362E-02   0.110920E-02   0.911680E-03   0.718694E-03
   0.537884E-03   0.375446E-03   0.234448E-03   0.114715E-03   0.141755E-04
  -0.712877E-04  -0.145667E-03  -0.212618E-03  -0.275018E-03  -0.334969E-03
  -0.393663E-03  -0.451985E-03  -0.509407E-03  -0.565908E-03  -0.619516E-03
  -0.666626E-03  -0.704201E-03  -0.729860E-03  -0.743084E-03  -0.744714E-03
  -0.736879E-03  -0.722275E-03  -0.702643E-03  -0.678473E-03  -0.650070E-03
  -0.617413E-03  -0.580814E-03  -0.540985E-03  -0.498843E-03  -0.455416E-03
  -0.412502E-03  -0.374093E-03  -0.345161E-03  -0.330012E-03  -0.330979E-03
  -0.348303E-03  -0.379791E-03  -0.422573E-03  -0.472472E-03  -0.525677E-03
  -0.579091E-03  -0.630184E-03  -0.677733E-03  -0.721259E-03  -0.761078E-03
  -0.797827E-03  -0.832429E-03  -0.865722E-03  -0.898018E-03  -0.930081E-03
  -0.961762E-03  -0.992933E-03  -0.102431E-02  -0.105653E-02  -0.109056E-02
  -0.112685E-02  -0.116538E-02  -0.120592E-02  -0.124774E-02  -0.128982E-02
  -0.133058E-02  -0.136751E-02  -0.139782E-02  -0.141982E-02  -0.143287E-02
  -0.143731E-02  -0.143460E-02  -0.142666E-02  -0.141552E-02  -0.140297E-02
  -0.139031E-02  -0.137867E-02  -0.136859E-02  -0.136051E-02  -0.135437E-02
  -0.135005E-02  -0.134698E-02  -0.134473E-02  -0.134259E-02  -0.134046E-02
  -0.133781E-02  -0.133454E-02  -0.133048E-02  -0.132576E-02  -0.132107E-02
  -0.131729E-02  -0.131587E-02  -0.131750E-02  -0.132228E-02  -0.133009E-02
  -0.134002E-02  -0.135126E-02  -0.136265E-02  -0.137333E-02  -0.138258E-02
  -0.138949E-02  -0.139297E-02  -0.139144E-02  -0.138404E-02  -0.137064E-02
  -0.135178E-02  -0.132852E-02  -0.130217E-02  -0.127414E-02  -0.124553E-02
  -0.121741E-02  -0.119031E-02  -0.116509E-02  -0.114234E-02  -0.112259E-02
  -0.110570E-02  -0.109152E-02  -0.107926E-02  -0.106810E-02  -0.105702E-02
  -0.104490E-02  -0.103104E-02  -0.101513E-02  -0.997162E-03  -0.977466E-03
  -0.956356E-03  -0.934002E-03  -0.910517E-03  -0.885998E-03  -0.860630E-03
  -0.834812E-03  -0.808711E-03  -0.782705E-03  -0.757023E-03  -0.731933E-03
  -0.707748E-03  -0.684893E-03  -0.663668E-03  -0.644349E-03  -0.626766E-03
  -0.610924E-03  -0.596387E-03  -0.582888E-03  -0.570043E-03  -0.557655E-03
  -0.545437E-03  -0.533285E-03  -0.521143E-03  -0.509016E-03  -0.496923E-03
  -0.484900E-03  -0.472842E-03  -0.460437E-03  -0.447153E-03  -0.432652E-03
  -0.416813E-03  -0.399780E-03  -0.381904E-03  -0.363622E-03  -0.345441E-03
  -0.327844E-03  -0.311169E-03  -0.295652E-03  -0.281426E-03  -0.268385E-03
  -0.256488E-03  -0.245586E-03  -0.235704E-03  -0.227067E-03  -0.219844E-03
  -0.214164E-03  -0.209946E-03  -0.206998E-03  -0.205008E-03  -0.203695E-03
  -0.202979E-03  -0.203019E-03  -0.204006E-03  -0.205877E-03  -0.208346E-03
  -0.210972E-03  -0.213284E-03  -0.214892E-03  -0.215532E-03  -0.215075E-03
  -0.213497E-03  -0.210914E-03  -0.207444E-03  -0.203232E-03  -0.198448E-03
  -0.193198E-03  -0.187597E-03  -0.181715E-03  -0.175574E-03  -0.169148E-03
  -0.162175E-03  -0.154452E-03  -0.145878E-03  -0.136487E-03  -0.126492E-03
  -0.116148E-03  -0.105771E-03  -0.956671E-04  -0.860502E-04  -0.771591E-04
  -0.690913E-04  -0.618531E-04  -0.554134E-04  -0.496548E-04  -0.444470E-04
  -0.396893E-04  -0.353052E-04  -0.312292E-04  -0.274272E-04  -0.238462E-04
  -0.204748E-04  -0.172690E-04  -0.141997E-04  -0.112466E-04  -0.839213E-05
  -0.561268E-05  -0.289444E-05  -0.233815E-06   0.237487E-05   0.493202E-05
   0.742885E-05   0.985360E-05   0.122004E-04   0.144700E-04   0.166696E-04
   0.188064E-04   0.208904E-04   0.229298E-04   0.249366E-04   0.269151E-04
   0.288674E-04   0.307964E-04   0.326987E-04   0.345703E-04   0.364066E-04
   0.382079E-04   0.399691E-04   0.416890E-04   0.433659E-04   0.449996E-04
   0.465829E-04   0.481202E-04   0.496047E-04   0.510371E-04   0.524150E-04
   0.537386E-04   0.550057E-04   0.562185E-04   0.573729E-04   0.584689E-04
   0.595068E-04   0.604829E-04   0.613985E-04   0.622521E-04   0.630437E-04
   0.637728E-04   0.644386E-04   0.650411E-04   0.655800E-04   0.660557E-04
   0.664684E-04   0.668187E-04   0.671071E-04   0.673339E-04   0.674996E-04
   0.676043E-04   0.676483E-04
